

软件版本	3.11.19



实验文件路径:	
方案文件路径:	



板编号	板 1
日期	2023/3/21
时间	9:20:45
检测仪类型:	Epoch 2
检测仪序列号:	2205170B
检测类型	检测仪

程序详细信息

板类型	96 WELL PLATE
完成后弹出板	
检测	吸收光 光谱
	A1..A12
	开始: 400 nm,  停止: 999 nm,  步骤: 1 nm
	检测前校准
	检测速度: 正常,  延迟: 100 msec,  测量值/数据点: 8

Spectrum

波长	A1	A2	A3	A4	A5	A6	A7	A8	A9	A10	A11	A12	B1	B2	B3	B4	B5	B6	B7	B8	B9	B10	B11	B12	C1	C2	C3	C4	C5	C6	C7	C8	C9	C10	C11	C12	D1	D2	D3	D4	D5	D6	D7	D8	D9	D10	D11	D12	E1	E2	E3	E4	E5	E6	E7	E8	E9	E10	E11	E12	F1	F2	F3	F4	F5	F6	F7	F8	F9	F10	F11	F12	G1	G2	G3	G4	G5	G6	G7	G8	G9	G10	G11	G12	H1	H2	H3	H4	H5	H6	H7	H8	H9	H10	H11	H12
400	0.568	0.586	0.680	0.613	0.596	0.558	0.612	0.537	0.640	0.542	0.595	0.596																																																																																				
401	0.566	0.585	0.678	0.611	0.594	0.556	0.610	0.536	0.638	0.541	0.594	0.594																																																																																				
402	0.565	0.583	0.677	0.609	0.592	0.555	0.609	0.534	0.636	0.540	0.592	0.593																																																																																				
403	0.563	0.582	0.675	0.608	0.591	0.553	0.607	0.533	0.635	0.538	0.591	0.591																																																																																				
404	0.561	0.580	0.673	0.606	0.589	0.552	0.605	0.531	0.633	0.537	0.589	0.589																																																																																				
405	0.560	0.579	0.672	0.605	0.588	0.550	0.604	0.530	0.632	0.536	0.588	0.588																																																																																				
406	0.558	0.578	0.670	0.603	0.586	0.549	0.603	0.529	0.630	0.534	0.587	0.587																																																																																				
407	0.557	0.576	0.669	0.602	0.585	0.548	0.601	0.528	0.629	0.533	0.585	0.586																																																																																				
408	0.556	0.575	0.667	0.601	0.584	0.547	0.600	0.527	0.627	0.532	0.584	0.584																																																																																				
409	0.554	0.574	0.666	0.599	0.582	0.545	0.598	0.526	0.626	0.531	0.583	0.583																																																																																				
410	0.553	0.572	0.664	0.598	0.581	0.544	0.597	0.524	0.624	0.529	0.581	0.581																																																																																				
411	0.551	0.571	0.663	0.596	0.579	0.543	0.596	0.523	0.623	0.528	0.580	0.580																																																																																				
412	0.550	0.570	0.661	0.595	0.578	0.541	0.594	0.522	0.622	0.527	0.579	0.579																																																																																				
413	0.549	0.568	0.660	0.594	0.577	0.540	0.593	0.520	0.620	0.526	0.577	0.577																																																																																				
414	0.547	0.567	0.658	0.592	0.576	0.539	0.592	0.519	0.619	0.525	0.576	0.576																																																																																				
415	0.546	0.565	0.657	0.591	0.574	0.538	0.590	0.518	0.617	0.523	0.575	0.575																																																																																				
416	0.545	0.564	0.655	0.590	0.573	0.537	0.589	0.517	0.616	0.522	0.573	0.574																																																																																				
417	0.543	0.563	0.654	0.588	0.572	0.535	0.587	0.516	0.615	0.521	0.572	0.572																																																																																				
418	0.542	0.562	0.653	0.587	0.571	0.534	0.586	0.515	0.613	0.520	0.571	0.571																																																																																				
419	0.541	0.560	0.651	0.586	0.569	0.533	0.585	0.513	0.612	0.518	0.570	0.570																																																																																				
420	0.539	0.559	0.650	0.584	0.568	0.532	0.583	0.512	0.610	0.517	0.568	0.568																																																																																				
421	0.538	0.558	0.649	0.583	0.567	0.531	0.582	0.511	0.609	0.516	0.567	0.567																																																																																				
422	0.537	0.557	0.648	0.582	0.566	0.530	0.581	0.511	0.608	0.516	0.566	0.566																																																																																				
423	0.536	0.556	0.647	0.581	0.565	0.529	0.580	0.510	0.607	0.515	0.565	0.565																																																																																				
424	0.535	0.555	0.645	0.580	0.564	0.528	0.579	0.509	0.606	0.514	0.564	0.564																																																																																				
425	0.534	0.554	0.644	0.579	0.563	0.527	0.578	0.508	0.605	0.513	0.563	0.563																																																																																				
426	0.533	0.553	0.643	0.578	0.562	0.526	0.577	0.507	0.604	0.512	0.562	0.562																																																																																				
427	0.532	0.552	0.642	0.577	0.561	0.525	0.576	0.506	0.603	0.511	0.561	0.561																																																																																				
428	0.531	0.551	0.641	0.576	0.560	0.524	0.575	0.505	0.602	0.510	0.560	0.560																																																																																				
429	0.530	0.550	0.640	0.575	0.559	0.523	0.574	0.504	0.601	0.509	0.559	0.559																																																																																				
430	0.529	0.549	0.639	0.574	0.558	0.522	0.573	0.503	0.600	0.508	0.558	0.558																																																																																				
431	0.528	0.548	0.638	0.573	0.557	0.521	0.572	0.502	0.599	0.507	0.557	0.557																																																																																				
432	0.527	0.547	0.636	0.572	0.556	0.520	0.571	0.501	0.598	0.506	0.556	0.556																																																																																				
433	0.526	0.546	0.635	0.571	0.555	0.519	0.570	0.500	0.597	0.505	0.555	0.555																																																																																				
434	0.525	0.545	0.634	0.570	0.554	0.518	0.569	0.500	0.596	0.504	0.554	0.554																																																																																				
435	0.524	0.544	0.633	0.569	0.553	0.517	0.568	0.499	0.595	0.504	0.553	0.553																																																																																				
436	0.523	0.543	0.632	0.568	0.552	0.516	0.567	0.498	0.593	0.503	0.552	0.552																																																																																				
437	0.522	0.542	0.631	0.567	0.551	0.516	0.566	0.497	0.593	0.502	0.551	0.551																																																																																				
438	0.521	0.541	0.630	0.566	0.551	0.515	0.565	0.496	0.592	0.501	0.551	0.550																																																																																				
439	0.520	0.540	0.629	0.565	0.550	0.514	0.564	0.495	0.591	0.500	0.550	0.549																																																																																				
440	0.519	0.539	0.628	0.564	0.549	0.513	0.563	0.495	0.590	0.499	0.549	0.549																																																																																				
441	0.518	0.539	0.627	0.563	0.548	0.512	0.562	0.494	0.589	0.499	0.548	0.548																																																																																				
442	0.518	0.538	0.626	0.562	0.547	0.512	0.561	0.493	0.588	0.498	0.547	0.547																																																																																				
443	0.517	0.537	0.625	0.562	0.546	0.511	0.561	0.493	0.587	0.497	0.547	0.546																																																																																				
444	0.516	0.536	0.624	0.561	0.546	0.510	0.560	0.492	0.586	0.497	0.546	0.546																																																																																				
445	0.515	0.536	0.624	0.560	0.545	0.510	0.559	0.491	0.586	0.496	0.545	0.545																																																																																				
446	0.514	0.535	0.623	0.559	0.544	0.509	0.558	0.490	0.585	0.495	0.544	0.544																																																																																				
447	0.514	0.534	0.622	0.559	0.544	0.508	0.558	0.490	0.584	0.495	0.544	0.544																																																																																				
448	0.513	0.534	0.621	0.558	0.543	0.508	0.557	0.489	0.583	0.494	0.543	0.543																																																																																				
449	0.512	0.533	0.621	0.557	0.542	0.507	0.556	0.489	0.583	0.494	0.542	0.542																																																																																				
450	0.512	0.532	0.620	0.557	0.542	0.507	0.556	0.488	0.582	0.493	0.542	0.542																																																																																				
451	0.511	0.532	0.619	0.556	0.541	0.506	0.555	0.488	0.581	0.492	0.541	0.541																																																																																				
452	0.511	0.531	0.619	0.556	0.541	0.505	0.555	0.487	0.581	0.492	0.541	0.541																																																																																				
453	0.510	0.531	0.618	0.555	0.540	0.505	0.554	0.487	0.580	0.492	0.540	0.540																																																																																				
454	0.510	0.530	0.618	0.555	0.540	0.505	0.554	0.486	0.580	0.491	0.540	0.540																																																																																				
455	0.509	0.530	0.618	0.554	0.539	0.504	0.553	0.486	0.579	0.491	0.539	0.540																																																																																				
456	0.509	0.530	0.617	0.554	0.539	0.504	0.553	0.486	0.579	0.490	0.539	0.539																																																																																				
457	0.508	0.529	0.617	0.553	0.539	0.504	0.552	0.485	0.579	0.490	0.539	0.539																																																																																				
458	0.508	0.529	0.616	0.553	0.539	0.503	0.552	0.485	0.578	0.490	0.538	0.539																																																																																				
459	0.508	0.529	0.616	0.553	0.538	0.503	0.552	0.485	0.578	0.489	0.538	0.538																																																																																				
460	0.507	0.529	0.616	0.553	0.538	0.503	0.552	0.485	0.578	0.489	0.538	0.538																																																																																				
461	0.507	0.529	0.616	0.553	0.538	0.503	0.552	0.485	0.578	0.489	0.538	0.538																																																																																				
462	0.507	0.529	0.616	0.553	0.538	0.503	0.552	0.485	0.578	0.489	0.538	0.538																																																																																				
463	0.507	0.528	0.616	0.553	0.538	0.503	0.552	0.485	0.578	0.490	0.538	0.538																																																																																				
464	0.507	0.528	0.616	0.553	0.538	0.503	0.552	0.485	0.578	0.489	0.538	0.538																																																																																				
465	0.507	0.529	0.617	0.553	0.538	0.503	0.552	0.485	0.578	0.490	0.538	0.538																																																																																				
466	0.508	0.529	0.617	0.553	0.539	0.503	0.552	0.485	0.578	0.490	0.538	0.539																																																																																				
467	0.508	0.529	0.617	0.554	0.539	0.504	0.553	0.485	0.579	0.490	0.539	0.539																																																																																				
468	0.508	0.530	0.618	0.554	0.540	0.504	0.553	0.486	0.579	0.491	0.539	0.539																																																																																				
469	0.509	0.530	0.618	0.555	0.540	0.505	0.554	0.486	0.580	0.491	0.540	0.540																																																																																				
470	0.509	0.531	0.619	0.555	0.541	0.505	0.554	0.487	0.580	0.491	0.540	0.540																																																																																				
471	0.510	0.531	0.620	0.556	0.541	0.506	0.555	0.487	0.581	0.492	0.541	0.541																																																																																				
472	0.511	0.532	0.621	0.557	0.542	0.507	0.556	0.488	0.582	0.493	0.542	0.542																																																																																				
473	0.511	0.533	0.622	0.558	0.543	0.508	0.557	0.489	0.583	0.494	0.543	0.543																																																																																				
474	0.512	0.534	0.624	0.559	0.544	0.509	0.558	0.490	0.584	0.495	0.544	0.544																																																																																				
475	0.514	0.535	0.625	0.561	0.546	0.510	0.560	0.491	0.586	0.496	0.545	0.545																																																																																				
476	0.515	0.537	0.627	0.562	0.547	0.511	0.561	0.492	0.587	0.497	0.547	0.547																																																																																				
477	0.517	0.538	0.629	0.564	0.549	0.513	0.563	0.494	0.589	0.499	0.548	0.549																																																																																				
478	0.518	0.540	0.631	0.566	0.550	0.514	0.565	0.495	0.591	0.500	0.550	0.550																																																																																				
479	0.520	0.542	0.633	0.568	0.552	0.516	0.567	0.497	0.593	0.502	0.552	0.552																																																																																				
480	0.522	0.544	0.636	0.570	0.555	0.518	0.569	0.499	0.595	0.504	0.554	0.555																																																																																				
481	0.525	0.547	0.639	0.574	0.558	0.521	0.572	0.502	0.598	0.507	0.557	0.558																																																																																				
482	0.528	0.550	0.643	0.577	0.561	0.524	0.576	0.505	0.602	0.509	0.560	0.561																																																																																				
483	0.530	0.552	0.646	0.580	0.564	0.527	0.579	0.507	0.604	0.512	0.563	0.564																																																																																				
484	0.532	0.555	0.649	0.582	0.567	0.529	0.581	0.509	0.607	0.514	0.565	0.566																																																																																				
485	0.535	0.558	0.653	0.585	0.569	0.532	0.584	0.512	0.610	0.517	0.568	0.569																																																																																				
486	0.538	0.561	0.657	0.589	0.572	0.535	0.587	0.515	0.614	0.520	0.571	0.573																																																																																				
487	0.542	0.565	0.661	0.593	0.576	0.539	0.591	0.518	0.618	0.523	0.575	0.577																																																																																				
488	0.545	0.569	0.666	0.597	0.580	0.543	0.596	0.522	0.623	0.527	0.580	0.581																																																																																				
489	0.549	0.574	0.671	0.602	0.584	0.546	0.600	0.526	0.627	0.531	0.584	0.585																																																																																				
490	0.554	0.578	0.677	0.607	0.589	0.551	0.605	0.530	0.632	0.535	0.588	0.590																																																																																				
491	0.559	0.583	0.684	0.613	0.595	0.557	0.612	0.536	0.639	0.540	0.594	0.596																																																																																				
492	0.564	0.588	0.690	0.618	0.600	0.561	0.617	0.540	0.644	0.545	0.599	0.601																																																																																				
493	0.568	0.593	0.695	0.623	0.605	0.566	0.622	0.544	0.649	0.549	0.604	0.606																																																																																				
494	0.574	0.599	0.702	0.629	0.610	0.571	0.628	0.549	0.655	0.554	0.610	0.612																																																																																				
495	0.580	0.605	0.711	0.636	0.618	0.578	0.635	0.556	0.663	0.561	0.617	0.619																																																																																				
496	0.586	0.612	0.718	0.643	0.624	0.584	0.642	0.562	0.670	0.567	0.623	0.626																																																																																				
497	0.593	0.619	0.727	0.651	0.631	0.591	0.650	0.568	0.677	0.573	0.630	0.633																																																																																				
498	0.599	0.626	0.735	0.658	0.638	0.597	0.657	0.574	0.684	0.579	0.637	0.640																																																																																				
499	0.604	0.631	0.742	0.664	0.643	0.602	0.662	0.579	0.690	0.584	0.642	0.645																																																																																				
500	0.610	0.637	0.749	0.671	0.650	0.608	0.669	0.585	0.698	0.590	0.649	0.652																																																																																				
501	0.616	0.644	0.758	0.678	0.657	0.615	0.677	0.591	0.705	0.596	0.656	0.659																																																																																				
502	0.622	0.651	0.766	0.686	0.664	0.622	0.684	0.598	0.713	0.603	0.663	0.666																																																																																				
503	0.628	0.657	0.774	0.693	0.671	0.628	0.691	0.604	0.719	0.609	0.670	0.673																																																																																				
504	0.635	0.664	0.783	0.701	0.678	0.635	0.699	0.610	0.727	0.616	0.677	0.681																																																																																				
505	0.640	0.670	0.790	0.707	0.684	0.640	0.706	0.616	0.734	0.621	0.683	0.687																																																																																				
506	0.645	0.676	0.797	0.713	0.690	0.646	0.712	0.621	0.740	0.626	0.689	0.693																																																																																				
507	0.650	0.682	0.804	0.720	0.696	0.651	0.718	0.626	0.746	0.631	0.695	0.699																																																																																				
508	0.655	0.687	0.811	0.726	0.702	0.657	0.724	0.632	0.752	0.637	0.700	0.705																																																																																				
509	0.659	0.692	0.818	0.731	0.707	0.662	0.730	0.636	0.758	0.641	0.706	0.710																																																																																				
510	0.664	0.697	0.824	0.737	0.712	0.667	0.735	0.641	0.763	0.646	0.711	0.716																																																																																				
511	0.667	0.702	0.829	0.742	0.717	0.670	0.740	0.645	0.768	0.650	0.715	0.720																																																																																				
512	0.670	0.705	0.834	0.746	0.721	0.674	0.744	0.648	0.772	0.653	0.719	0.724																																																																																				
513	0.672	0.708	0.838	0.749	0.723	0.677	0.747	0.651	0.775	0.656	0.722	0.727																																																																																				
514	0.674	0.711	0.842	0.752	0.726	0.680	0.750	0.654	0.778	0.658	0.725	0.730																																																																																				
515	0.675	0.713	0.844	0.755	0.728	0.681	0.752	0.655	0.780	0.660	0.727	0.732																																																																																				
516	0.676	0.714	0.846	0.756	0.730	0.683	0.754	0.657	0.781	0.661	0.729	0.733																																																																																				
517	0.676	0.715	0.848	0.758	0.731	0.684	0.756	0.658	0.783	0.663	0.730	0.735																																																																																				
518	0.676	0.716	0.849	0.759	0.732	0.684	0.756	0.658	0.783	0.663	0.731	0.735																																																																																				
519	0.675	0.716	0.849	0.759	0.732	0.684	0.756	0.658	0.783	0.663	0.731	0.736																																																																																				
520	0.674	0.716	0.849	0.759	0.732	0.684	0.756	0.658	0.783	0.663	0.731	0.735																																																																																				
521	0.672	0.715	0.848	0.758	0.731	0.683	0.756	0.657	0.782	0.662	0.730	0.734																																																																																				
522	0.670	0.714	0.847	0.757	0.730	0.682	0.754	0.656	0.780	0.661	0.729	0.733																																																																																				
523	0.667	0.712	0.845	0.755	0.728	0.680	0.752	0.654	0.778	0.659	0.727	0.731																																																																																				
524	0.664	0.709	0.843	0.753	0.726	0.678	0.750	0.652	0.775	0.657	0.725	0.729																																																																																				
525	0.660	0.706	0.840	0.750	0.723	0.675	0.747	0.650	0.772	0.654	0.722	0.726																																																																																				
526	0.657	0.704	0.837	0.748	0.720	0.673	0.745	0.647	0.769	0.652	0.719	0.723																																																																																				
527	0.653	0.700	0.833	0.744	0.717	0.669	0.741	0.644	0.765	0.649	0.716	0.720																																																																																				
528	0.649	0.697	0.829	0.741	0.714	0.666	0.737	0.641	0.762	0.646	0.713	0.716																																																																																				
529	0.645	0.694	0.826	0.738	0.711	0.663	0.734	0.638	0.758	0.643	0.710	0.714																																																																																				
530	0.642	0.691	0.822	0.735	0.707	0.660	0.731	0.635	0.755	0.640	0.707	0.710																																																																																				
531	0.637	0.687	0.818	0.731	0.704	0.656	0.727	0.632	0.751	0.637	0.703	0.706																																																																																				
532	0.631	0.681	0.812	0.725	0.698	0.651	0.722	0.627	0.745	0.632	0.698	0.701																																																																																				
533	0.626	0.677	0.806	0.720	0.693	0.646	0.716	0.622	0.739	0.627	0.693	0.696																																																																																				
534	0.621	0.672	0.801	0.716	0.689	0.642	0.712	0.618	0.734	0.623	0.688	0.691																																																																																				
535	0.616	0.667	0.795	0.710	0.684	0.637	0.706	0.614	0.729	0.618	0.683	0.686																																																																																				
536	0.610	0.662	0.789	0.705	0.678	0.632	0.701	0.609	0.723	0.613	0.678	0.680																																																																																				
537	0.606	0.657	0.783	0.700	0.674	0.628	0.696	0.605	0.718	0.609	0.673	0.676																																																																																				
538	0.600	0.652	0.777	0.694	0.668	0.623	0.690	0.599	0.712	0.604	0.668	0.670																																																																																				
539	0.594	0.645	0.770	0.688	0.662	0.617	0.683	0.594	0.705	0.598	0.661	0.663																																																																																				
540	0.588	0.639	0.762	0.681	0.656	0.611	0.677	0.588	0.698	0.593	0.655	0.657																																																																																				
541	0.583	0.634	0.756	0.676	0.651	0.606	0.671	0.583	0.692	0.588	0.650	0.652																																																																																				
542	0.578	0.629	0.750	0.671	0.646	0.601	0.666	0.579	0.687	0.583	0.645	0.647																																																																																				
543	0.574	0.625	0.745	0.666	0.641	0.596	0.661	0.574	0.682	0.579	0.640	0.642																																																																																				
544	0.569	0.619	0.738	0.660	0.635	0.591	0.655	0.569	0.676	0.573	0.634	0.636																																																																																				
545	0.563	0.613	0.731	0.653	0.629	0.585	0.648	0.564	0.669	0.568	0.628	0.629																																																																																				
546	0.558	0.607	0.724	0.647	0.623	0.579	0.642	0.558	0.662	0.562	0.622	0.623																																																																																				
547	0.553	0.601	0.717	0.641	0.617	0.574	0.636	0.553	0.656	0.557	0.616	0.617																																																																																				
548	0.548	0.596	0.710	0.635	0.612	0.569	0.630	0.547	0.650	0.551	0.610	0.611																																																																																				
549	0.544	0.591	0.705	0.630	0.608	0.564	0.625	0.543	0.645	0.547	0.606	0.606																																																																																				
550	0.539	0.585	0.698	0.624	0.602	0.559	0.619	0.538	0.639	0.542	0.600	0.600																																																																																				
551	0.535	0.579	0.691	0.618	0.596	0.553	0.613	0.533	0.632	0.536	0.594	0.594																																																																																				
552	0.530	0.574	0.684	0.612	0.591	0.548	0.607	0.528	0.626	0.531	0.588	0.589																																																																																				
553	0.526	0.569	0.678	0.607	0.585	0.543	0.602	0.523	0.621	0.527	0.583	0.583																																																																																				
554	0.522	0.564	0.672	0.601	0.580	0.538	0.596	0.519	0.615	0.522	0.578	0.578																																																																																				
555	0.519	0.559	0.666	0.596	0.576	0.534	0.591	0.514	0.610	0.517	0.573	0.573																																																																																				
556	0.515	0.554	0.660	0.591	0.571	0.529	0.585	0.509	0.604	0.513	0.568	0.568																																																																																				
557	0.512	0.549	0.654	0.586	0.566	0.525	0.581	0.506	0.599	0.508	0.564	0.563																																																																																				
558	0.509	0.545	0.648	0.581	0.561	0.520	0.575	0.501	0.594	0.504	0.558	0.557																																																																																				
559	0.506	0.540	0.643	0.576	0.557	0.516	0.571	0.497	0.589	0.499	0.553	0.552																																																																																				
560	0.503	0.536	0.637	0.571	0.552	0.512	0.566	0.493	0.584	0.495	0.549	0.548																																																																																				
561	0.501	0.532	0.633	0.568	0.549	0.509	0.562	0.490	0.581	0.492	0.546	0.544																																																																																				
562	0.499	0.529	0.629	0.564	0.546	0.505	0.558	0.487	0.577	0.489	0.542	0.541																																																																																				
563	0.497	0.526	0.625	0.560	0.543	0.502	0.555	0.484	0.574	0.486	0.539	0.537																																																																																				
564	0.495	0.523	0.622	0.557	0.540	0.500	0.552	0.481	0.570	0.483	0.535	0.534																																																																																				
565	0.494	0.519	0.618	0.554	0.536	0.497	0.548	0.478	0.566	0.479	0.532	0.530																																																																																				
566	0.493	0.517	0.614	0.551	0.534	0.494	0.545	0.476	0.564	0.477	0.529	0.528																																																																																				
567	0.492	0.514	0.611	0.548	0.531	0.492	0.543	0.473	0.561	0.474	0.527	0.525																																																																																				
568	0.491	0.512	0.609	0.546	0.529	0.490	0.540	0.472	0.559	0.472	0.525	0.522																																																																																				
569	0.491	0.510	0.606	0.544	0.528	0.488	0.538	0.470	0.557	0.470	0.522	0.520																																																																																				
570	0.491	0.509	0.604	0.542	0.526	0.487	0.537	0.469	0.555	0.469	0.521	0.518																																																																																				
571	0.491	0.507	0.602	0.541	0.525	0.485	0.535	0.467	0.553	0.467	0.519	0.516																																																																																				
572	0.491	0.506	0.601	0.539	0.524	0.484	0.534	0.466	0.552	0.466	0.518	0.515																																																																																				
573	0.492	0.505	0.600	0.538	0.523	0.483	0.533	0.465	0.551	0.465	0.517	0.514																																																																																				
574	0.493	0.504	0.599	0.538	0.522	0.483	0.532	0.465	0.550	0.464	0.516	0.513																																																																																				
575	0.494	0.504	0.599	0.537	0.522	0.483	0.531	0.464	0.549	0.464	0.516	0.513																																																																																				
576	0.496	0.504	0.598	0.537	0.522	0.483	0.531	0.464	0.549	0.463	0.515	0.512																																																																																				
577	0.498	0.504	0.598	0.538	0.522	0.483	0.531	0.465	0.550	0.463	0.515	0.512																																																																																				
578	0.500	0.504	0.599	0.538	0.523	0.484	0.532	0.465	0.550	0.464	0.516	0.512																																																																																				
579	0.503	0.505	0.600	0.539	0.523	0.484	0.532	0.466	0.551	0.464	0.516	0.513																																																																																				
580	0.506	0.506	0.601	0.540	0.525	0.485	0.534	0.467	0.552	0.465	0.517	0.514																																																																																				
581	0.509	0.507	0.602	0.541	0.526	0.487	0.535	0.468	0.553	0.465	0.518	0.515																																																																																				
582	0.512	0.509	0.604	0.543	0.528	0.488	0.536	0.469	0.554	0.466	0.519	0.516																																																																																				
583	0.516	0.511	0.606	0.545	0.530	0.490	0.538	0.471	0.557	0.468	0.521	0.518																																																																																				
584	0.520	0.513	0.609	0.547	0.532	0.493	0.541	0.473	0.559	0.470	0.523	0.520																																																																																				
585	0.525	0.515	0.612	0.550	0.535	0.495	0.543	0.475	0.562	0.472	0.525	0.522																																																																																				
586	0.530	0.518	0.615	0.553	0.538	0.498	0.546	0.478	0.565	0.474	0.528	0.525																																																																																				
587	0.535	0.522	0.619	0.557	0.542	0.501	0.550	0.481	0.568	0.477	0.531	0.528																																																																																				
588	0.540	0.525	0.623	0.560	0.545	0.504	0.553	0.484	0.572	0.479	0.534	0.531																																																																																				
589	0.545	0.528	0.626	0.563	0.548	0.507	0.556	0.487	0.575	0.482	0.537	0.534																																																																																				
590	0.551	0.532	0.631	0.568	0.553	0.511	0.560	0.491	0.580	0.486	0.541	0.538																																																																																				
591	0.557	0.536	0.636	0.572	0.557	0.516	0.565	0.495	0.584	0.489	0.545	0.542																																																																																				
592	0.564	0.541	0.642	0.577	0.562	0.520	0.570	0.499	0.589	0.493	0.550	0.546																																																																																				
593	0.571	0.545	0.647	0.582	0.567	0.525	0.575	0.503	0.594	0.497	0.554	0.551																																																																																				
594	0.578	0.551	0.653	0.588	0.573	0.530	0.580	0.508	0.600	0.502	0.559	0.556																																																																																				
595	0.586	0.556	0.660	0.594	0.578	0.535	0.586	0.513	0.606	0.507	0.565	0.562																																																																																				
596	0.594	0.562	0.667	0.600	0.584	0.541	0.592	0.519	0.612	0.512	0.570	0.567																																																																																				
597	0.601	0.568	0.673	0.606	0.590	0.547	0.598	0.524	0.618	0.516	0.576	0.573																																																																																				
598	0.609	0.574	0.681	0.613	0.597	0.553	0.605	0.530	0.625	0.522	0.582	0.579																																																																																				
599	0.618	0.581	0.689	0.620	0.603	0.559	0.612	0.536	0.632	0.528	0.588	0.585																																																																																				
600	0.628	0.588	0.698	0.628	0.611	0.567	0.620	0.543	0.640	0.534	0.596	0.593																																																																																				
601	0.639	0.597	0.708	0.637	0.620	0.575	0.629	0.551	0.650	0.542	0.604	0.601																																																																																				
602	0.649	0.606	0.718	0.646	0.629	0.584	0.638	0.559	0.659	0.549	0.613	0.610																																																																																				
603	0.659	0.613	0.727	0.654	0.637	0.591	0.646	0.566	0.667	0.556	0.620	0.617																																																																																				
604	0.669	0.621	0.737	0.663	0.646	0.599	0.654	0.573	0.676	0.564	0.628	0.625																																																																																				
605	0.679	0.629	0.746	0.671	0.654	0.607	0.663	0.581	0.684	0.570	0.636	0.633																																																																																				
606	0.688	0.637	0.755	0.679	0.661	0.614	0.671	0.588	0.693	0.577	0.643	0.640																																																																																				
607	0.698	0.645	0.765	0.688	0.670	0.622	0.680	0.596	0.703	0.585	0.652	0.649																																																																																				
608	0.711	0.655	0.777	0.699	0.681	0.632	0.691	0.605	0.714	0.594	0.662	0.659																																																																																				
609	0.722	0.665	0.789	0.710	0.691	0.642	0.701	0.614	0.725	0.603	0.672	0.669																																																																																				
610	0.734	0.675	0.801	0.720	0.702	0.652	0.712	0.624	0.735	0.612	0.682	0.680																																																																																				
611	0.745	0.685	0.812	0.730	0.711	0.661	0.722	0.632	0.745	0.620	0.691	0.689																																																																																				
612	0.757	0.695	0.824	0.741	0.722	0.671	0.733	0.641	0.757	0.629	0.701	0.699																																																																																				
613	0.769	0.706	0.837	0.752	0.733	0.681	0.744	0.651	0.769	0.639	0.712	0.710																																																																																				
614	0.783	0.718	0.850	0.765	0.745	0.693	0.756	0.662	0.781	0.650	0.723	0.722																																																																																				
615	0.796	0.730	0.864	0.777	0.757	0.704	0.769	0.673	0.794	0.660	0.735	0.734																																																																																				
616	0.809	0.742	0.878	0.789	0.769	0.716	0.781	0.684	0.807	0.671	0.747	0.746																																																																																				
617	0.822	0.753	0.892	0.802	0.781	0.727	0.794	0.695	0.820	0.682	0.758	0.758																																																																																				
618	0.836	0.765	0.906	0.814	0.793	0.739	0.806	0.706	0.834	0.693	0.770	0.770																																																																																				
619	0.848	0.777	0.919	0.826	0.805	0.750	0.818	0.717	0.846	0.703	0.781	0.782																																																																																				
620	0.863	0.791	0.935	0.840	0.818	0.764	0.832	0.729	0.861	0.716	0.795	0.796																																																																																				
621	0.876	0.804	0.950	0.854	0.832	0.776	0.846	0.741	0.876	0.727	0.808	0.809																																																																																				
622	0.890	0.817	0.965	0.867	0.845	0.789	0.860	0.753	0.890	0.739	0.820	0.823																																																																																				
623	0.903	0.830	0.979	0.880	0.858	0.801	0.873	0.764	0.904	0.751	0.833	0.836																																																																																				
624	0.917	0.843	0.994	0.893	0.871	0.813	0.887	0.776	0.918	0.763	0.846	0.849																																																																																				
625	0.930	0.856	1.009	0.906	0.884	0.826	0.900	0.788	0.932	0.775	0.859	0.862																																																																																				
626	0.941	0.866	1.021	0.917	0.894	0.836	0.911	0.797	0.945	0.784	0.869	0.873																																																																																				
627	0.954	0.879	1.036	0.930	0.906	0.848	0.924	0.809	0.959	0.796	0.881	0.886																																																																																				
628	0.966	0.891	1.049	0.942	0.920	0.860	0.937	0.820	0.972	0.807	0.894	0.898																																																																																				
629	0.978	0.903	1.063	0.954	0.931	0.872	0.950	0.831	0.986	0.819	0.906	0.911																																																																																				
630	0.990	0.916	1.077	0.967	0.943	0.884	0.963	0.842	1.000	0.830	0.918	0.924																																																																																				
631	1.002	0.928	1.091	0.980	0.956	0.896	0.975	0.854	1.014	0.842	0.930	0.938																																																																																				
632	1.014	0.941	1.105	0.992	0.968	0.908	0.988	0.865	1.027	0.853	0.942	0.950																																																																																				
633	1.025	0.952	1.118	1.004	0.979	0.919	1.000	0.875	1.041	0.864	0.954	0.962																																																																																				
634	1.036	0.964	1.131	1.014	0.991	0.930	1.012	0.886	1.053	0.875	0.965	0.974																																																																																				
635	1.046	0.976	1.144	1.026	1.002	0.941	1.024	0.896	1.067	0.886	0.977	0.987																																																																																				
636	1.057	0.987	1.157	1.037	1.014	0.952	1.036	0.906	1.079	0.897	0.988	0.999																																																																																				
637	1.067	0.997	1.168	1.047	1.024	0.962	1.047	0.916	1.091	0.907	0.999	1.010																																																																																				
638	1.076	1.008	1.180	1.058	1.034	0.973	1.058	0.926	1.104	0.918	1.010	1.021																																																																																				
639	1.086	1.018	1.192	1.068	1.045	0.983	1.069	0.935	1.116	0.928	1.020	1.033																																																																																				
640	1.095	1.029	1.203	1.078	1.054	0.992	1.080	0.945	1.127	0.938	1.030	1.043																																																																																				
641	1.103	1.038	1.213	1.087	1.064	1.002	1.090	0.953	1.138	0.947	1.040	1.054																																																																																				
642	1.111	1.048	1.224	1.097	1.073	1.011	1.099	0.962	1.150	0.957	1.050	1.065																																																																																				
643	1.119	1.057	1.233	1.105	1.082	1.020	1.109	0.970	1.160	0.966	1.059	1.075																																																																																				
644	1.126	1.065	1.242	1.113	1.090	1.028	1.119	0.978	1.170	0.974	1.068	1.084																																																																																				
645	1.133	1.074	1.251	1.121	1.098	1.036	1.126	0.985	1.180	0.983	1.076	1.094																																																																																				
646	1.139	1.082	1.260	1.128	1.105	1.043	1.135	0.992	1.189	0.991	1.084	1.102																																																																																				
647	1.145	1.089	1.268	1.135	1.112	1.051	1.142	0.999	1.198	0.999	1.092	1.111																																																																																				
648	1.151	1.097	1.275	1.142	1.119	1.057	1.150	1.005	1.206	1.006	1.099	1.119																																																																																				
649	1.156	1.103	1.282	1.148	1.125	1.064	1.157	1.012	1.214	1.013	1.107	1.127																																																																																				
650	1.160	1.109	1.289	1.153	1.131	1.070	1.163	1.017	1.222	1.020	1.113	1.134																																																																																				
651	1.164	1.115	1.295	1.159	1.136	1.075	1.169	1.022	1.229	1.026	1.119	1.141																																																																																				
652	1.167	1.120	1.300	1.163	1.141	1.080	1.174	1.027	1.235	1.031	1.124	1.147																																																																																				
653	1.170	1.125	1.305	1.167	1.145	1.085	1.180	1.031	1.241	1.037	1.129	1.153																																																																																				
654	1.173	1.129	1.309	1.171	1.149	1.089	1.184	1.035	1.246	1.042	1.134	1.158																																																																																				
655	1.174	1.133	1.313	1.174	1.152	1.093	1.188	1.038	1.251	1.046	1.138	1.163																																																																																				
656	1.176	1.137	1.317	1.177	1.156	1.096	1.192	1.042	1.256	1.051	1.142	1.168																																																																																				
657	1.177	1.141	1.320	1.180	1.159	1.100	1.196	1.045	1.261	1.055	1.146	1.173																																																																																				
658	1.178	1.143	1.323	1.182	1.161	1.102	1.199	1.047	1.264	1.059	1.150	1.177																																																																																				
659	1.178	1.146	1.325	1.184	1.163	1.105	1.202	1.050	1.268	1.062	1.153	1.181																																																																																				
660	1.178	1.148	1.327	1.185	1.164	1.107	1.204	1.052	1.271	1.065	1.155	1.183																																																																																				
661	1.177	1.149	1.328	1.186	1.165	1.108	1.206	1.053	1.273	1.068	1.157	1.186																																																																																				
662	1.175	1.151	1.328	1.187	1.166	1.109	1.207	1.054	1.275	1.070	1.159	1.189																																																																																				
663	1.173	1.151	1.329	1.187	1.166	1.110	1.208	1.055	1.277	1.072	1.160	1.191																																																																																				
664	1.171	1.152	1.328	1.186	1.166	1.110	1.208	1.055	1.278	1.073	1.160	1.192																																																																																				
665	1.168	1.151	1.327	1.185	1.165	1.110	1.208	1.054	1.278	1.073	1.161	1.193																																																																																				
666	1.165	1.151	1.326	1.184	1.164	1.109	1.207	1.054	1.278	1.074	1.160	1.193																																																																																				
667	1.161	1.149	1.324	1.182	1.162	1.108	1.206	1.053	1.277	1.074	1.159	1.193																																																																																				
668	1.156	1.148	1.322	1.179	1.160	1.106	1.204	1.051	1.276	1.073	1.158	1.192																																																																																				
669	1.151	1.146	1.319	1.177	1.158	1.104	1.202	1.049	1.274	1.073	1.157	1.191																																																																																				
670	1.146	1.143	1.315	1.173	1.155	1.102	1.200	1.047	1.272	1.071	1.155	1.190																																																																																				
671	1.139	1.140	1.311	1.170	1.151	1.099	1.196	1.044	1.270	1.070	1.152	1.188																																																																																				
672	1.133	1.137	1.307	1.166	1.148	1.096	1.193	1.041	1.266	1.067	1.149	1.185																																																																																				
673	1.127	1.133	1.302	1.161	1.143	1.092	1.189	1.037	1.263	1.065	1.146	1.182																																																																																				
674	1.119	1.129	1.296	1.156	1.139	1.088	1.184	1.033	1.258	1.062	1.141	1.178																																																																																				
675	1.111	1.124	1.290	1.151	1.133	1.083	1.179	1.029	1.254	1.058	1.137	1.174																																																																																				
676	1.102	1.118	1.284	1.144	1.127	1.078	1.173	1.024	1.248	1.054	1.132	1.170																																																																																				
677	1.094	1.113	1.277	1.138	1.121	1.072	1.168	1.019	1.242	1.050	1.127	1.165																																																																																				
678	1.085	1.107	1.269	1.131	1.115	1.066	1.161	1.013	1.236	1.045	1.121	1.159																																																																																				
679	1.075	1.100	1.262	1.124	1.108	1.060	1.155	1.007	1.230	1.040	1.115	1.153																																																																																				
680	1.065	1.093	1.253	1.116	1.101	1.053	1.147	1.001	1.222	1.034	1.108	1.147																																																																																				
681	1.055	1.086	1.244	1.108	1.093	1.046	1.139	0.994	1.214	1.028	1.101	1.140																																																																																				
682	1.045	1.078	1.235	1.100	1.085	1.039	1.131	0.987	1.207	1.021	1.094	1.133																																																																																				
683	1.034	1.071	1.225	1.091	1.077	1.031	1.123	0.980	1.198	1.015	1.086	1.126																																																																																				
684	1.024	1.062	1.216	1.083	1.069	1.023	1.115	0.972	1.190	1.008	1.079	1.117																																																																																				
685	1.012	1.053	1.205	1.073	1.060	1.015	1.105	0.964	1.180	1.000	1.069	1.109																																																																																				
686	1.000	1.044	1.193	1.062	1.049	1.005	1.095	0.955	1.170	0.992	1.060	1.099																																																																																				
687	0.987	1.034	1.181	1.052	1.039	0.996	1.084	0.946	1.159	0.983	1.050	1.089																																																																																				
688	0.975	1.024	1.169	1.041	1.029	0.986	1.074	0.936	1.148	0.974	1.040	1.080																																																																																				
689	0.963	1.014	1.158	1.031	1.020	0.977	1.064	0.928	1.138	0.966	1.031	1.070																																																																																				
690	0.951	1.004	1.146	1.020	1.009	0.967	1.054	0.918	1.127	0.957	1.021	1.060																																																																																				
691	0.940	0.995	1.135	1.011	1.000	0.958	1.043	0.910	1.117	0.949	1.012	1.051																																																																																				
692	0.928	0.985	1.123	1.000	0.989	0.948	1.033	0.901	1.106	0.939	1.001	1.040																																																																																				
693	0.915	0.974	1.110	0.988	0.978	0.938	1.021	0.890	1.094	0.929	0.991	1.030																																																																																				
694	0.903	0.963	1.097	0.977	0.967	0.927	1.010	0.880	1.082	0.920	0.980	1.018																																																																																				
695	0.891	0.953	1.085	0.966	0.956	0.917	0.999	0.871	1.071	0.910	0.970	1.008																																																																																				
696	0.879	0.942	1.072	0.954	0.945	0.907	0.987	0.861	1.058	0.900	0.959	0.997																																																																																				
697	0.865	0.930	1.058	0.941	0.933	0.894	0.974	0.849	1.045	0.889	0.947	0.985																																																																																				
698	0.855	0.920	1.046	0.931	0.923	0.885	0.964	0.840	1.034	0.880	0.937	0.975																																																																																				
699	0.843	0.909	1.034	0.920	0.912	0.875	0.953	0.831	1.023	0.871	0.927	0.964																																																																																				
700	0.832	0.900	1.022	0.910	0.902	0.866	0.942	0.822	1.012	0.862	0.917	0.954																																																																																				
701	0.821	0.889	1.010	0.899	0.892	0.855	0.931	0.812	1.000	0.852	0.906	0.943																																																																																				
702	0.809	0.878	0.997	0.887	0.880	0.845	0.920	0.802	0.988	0.842	0.895	0.931																																																																																				
703	0.797	0.867	0.984	0.875	0.868	0.833	0.909	0.791	0.975	0.831	0.883	0.919																																																																																				
704	0.786	0.857	0.971	0.864	0.857	0.824	0.896	0.781	0.964	0.821	0.872	0.909																																																																																				
705	0.775	0.846	0.960	0.853	0.847	0.813	0.885	0.772	0.952	0.812	0.862	0.898																																																																																				
706	0.764	0.836	0.947	0.842	0.837	0.803	0.874	0.762	0.941	0.802	0.851	0.888																																																																																				
707	0.754	0.825	0.935	0.831	0.826	0.793	0.863	0.752	0.930	0.792	0.841	0.877																																																																																				
708	0.743	0.815	0.923	0.821	0.815	0.783	0.852	0.743	0.918	0.783	0.831	0.867																																																																																				
709	0.732	0.804	0.911	0.810	0.805	0.773	0.841	0.733	0.907	0.773	0.820	0.856																																																																																				
710	0.723	0.794	0.900	0.800	0.795	0.764	0.831	0.724	0.896	0.764	0.811	0.846																																																																																				
711	0.712	0.784	0.888	0.789	0.785	0.754	0.820	0.715	0.885	0.755	0.801	0.835																																																																																				
712	0.703	0.775	0.877	0.780	0.776	0.746	0.810	0.706	0.874	0.746	0.791	0.826																																																																																				
713	0.693	0.765	0.866	0.769	0.766	0.736	0.799	0.697	0.863	0.737	0.781	0.815																																																																																				
714	0.683	0.755	0.854	0.759	0.756	0.726	0.789	0.688	0.852	0.727	0.771	0.805																																																																																				
715	0.673	0.745	0.842	0.749	0.746	0.717	0.779	0.679	0.841	0.718	0.761	0.794																																																																																				
716	0.664	0.735	0.832	0.739	0.737	0.708	0.769	0.670	0.830	0.709	0.752	0.785																																																																																				
717	0.654	0.726	0.821	0.729	0.727	0.699	0.759	0.662	0.820	0.700	0.743	0.775																																																																																				
718	0.645	0.717	0.810	0.720	0.718	0.690	0.749	0.653	0.809	0.692	0.733	0.765																																																																																				
719	0.636	0.708	0.799	0.710	0.709	0.681	0.740	0.645	0.799	0.683	0.724	0.755																																																																																				
720	0.627	0.699	0.789	0.702	0.701	0.672	0.730	0.637	0.789	0.675	0.715	0.746																																																																																				
721	0.618	0.689	0.778	0.692	0.691	0.663	0.720	0.628	0.778	0.666	0.705	0.736																																																																																				
722	0.608	0.679	0.767	0.682	0.682	0.654	0.710	0.619	0.768	0.657	0.696	0.726																																																																																				
723	0.600	0.670	0.756	0.672	0.672	0.645	0.700	0.611	0.757	0.648	0.686	0.717																																																																																				
724	0.591	0.662	0.747	0.663	0.664	0.637	0.691	0.603	0.747	0.639	0.677	0.707																																																																																				
725	0.582	0.653	0.736	0.654	0.655	0.628	0.681	0.594	0.737	0.631	0.668	0.698																																																																																				
726	0.574	0.644	0.726	0.645	0.646	0.620	0.673	0.587	0.728	0.623	0.659	0.689																																																																																				
727	0.565	0.636	0.716	0.637	0.638	0.611	0.664	0.579	0.718	0.615	0.651	0.679																																																																																				
728	0.557	0.627	0.707	0.628	0.629	0.603	0.654	0.571	0.709	0.607	0.642	0.671																																																																																				
729	0.549	0.619	0.697	0.619	0.621	0.595	0.646	0.564	0.699	0.599	0.633	0.662																																																																																				
730	0.541	0.611	0.688	0.611	0.613	0.587	0.637	0.556	0.690	0.591	0.625	0.653																																																																																				
731	0.534	0.603	0.678	0.603	0.605	0.580	0.629	0.549	0.681	0.583	0.617	0.644																																																																																				
732	0.526	0.595	0.670	0.595	0.597	0.572	0.620	0.542	0.672	0.576	0.609	0.636																																																																																				
733	0.518	0.587	0.661	0.588	0.589	0.564	0.612	0.534	0.663	0.568	0.601	0.628																																																																																				
734	0.511	0.580	0.652	0.580	0.582	0.557	0.605	0.528	0.655	0.561	0.594	0.620																																																																																				
735	0.503	0.572	0.643	0.572	0.574	0.550	0.596	0.521	0.647	0.554	0.586	0.612																																																																																				
736	0.495	0.564	0.633	0.563	0.566	0.542	0.587	0.513	0.636	0.546	0.578	0.603																																																																																				
737	0.487	0.556	0.624	0.555	0.557	0.534	0.579	0.506	0.628	0.538	0.569	0.594																																																																																				
738	0.480	0.548	0.616	0.548	0.550	0.527	0.571	0.499	0.620	0.531	0.562	0.587																																																																																				
739	0.472	0.541	0.607	0.540	0.543	0.519	0.563	0.492	0.611	0.524	0.554	0.578																																																																																				
740	0.465	0.533	0.599	0.532	0.535	0.512	0.555	0.485	0.602	0.516	0.546	0.570																																																																																				
741	0.458	0.526	0.590	0.525	0.528	0.506	0.548	0.479	0.594	0.510	0.539	0.563																																																																																				
742	0.451	0.519	0.582	0.517	0.521	0.498	0.540	0.472	0.586	0.503	0.531	0.555																																																																																				
743	0.444	0.512	0.574	0.510	0.514	0.491	0.532	0.466	0.578	0.496	0.524	0.547																																																																																				
744	0.437	0.505	0.566	0.503	0.507	0.485	0.524	0.459	0.570	0.489	0.517	0.539																																																																																				
745	0.430	0.498	0.557	0.496	0.500	0.478	0.517	0.452	0.562	0.482	0.510	0.532																																																																																				
746	0.423	0.491	0.549	0.489	0.493	0.471	0.510	0.446	0.554	0.476	0.503	0.525																																																																																				
747	0.416	0.484	0.542	0.482	0.486	0.464	0.503	0.440	0.546	0.469	0.496	0.518																																																																																				
748	0.410	0.477	0.534	0.475	0.479	0.458	0.496	0.433	0.539	0.462	0.489	0.510																																																																																				
749	0.404	0.470	0.526	0.468	0.472	0.452	0.488	0.427	0.531	0.456	0.482	0.503																																																																																				
750	0.398	0.464	0.519	0.462	0.466	0.445	0.482	0.421	0.524	0.450	0.475	0.496																																																																																				
751	0.391	0.458	0.512	0.456	0.460	0.439	0.475	0.416	0.516	0.444	0.469	0.489																																																																																				
752	0.386	0.452	0.505	0.450	0.454	0.434	0.469	0.410	0.510	0.438	0.463	0.483																																																																																				
753	0.380	0.446	0.498	0.443	0.448	0.428	0.463	0.405	0.503	0.432	0.457	0.476																																																																																				
754	0.374	0.440	0.491	0.438	0.442	0.422	0.456	0.400	0.497	0.426	0.451	0.470																																																																																				
755	0.368	0.434	0.484	0.431	0.436	0.416	0.450	0.394	0.489	0.420	0.444	0.463																																																																																				
756	0.363	0.428	0.478	0.426	0.430	0.411	0.444	0.389	0.483	0.415	0.439	0.457																																																																																				
757	0.357	0.422	0.471	0.420	0.424	0.405	0.437	0.383	0.476	0.409	0.433	0.451																																																																																				
758	0.352	0.417	0.465	0.414	0.419	0.399	0.431	0.378	0.470	0.404	0.427	0.445																																																																																				
759	0.347	0.411	0.458	0.408	0.414	0.394	0.426	0.373	0.464	0.398	0.421	0.439																																																																																				
760	0.342	0.406	0.452	0.403	0.408	0.389	0.420	0.368	0.457	0.393	0.416	0.433																																																																																				
761	0.336	0.400	0.445	0.397	0.402	0.383	0.413	0.362	0.451	0.387	0.409	0.427																																																																																				
762	0.330	0.393	0.438	0.390	0.396	0.376	0.406	0.356	0.443	0.381	0.402	0.419																																																																																				
763	0.325	0.388	0.432	0.385	0.391	0.372	0.401	0.351	0.437	0.376	0.398	0.414																																																																																				
764	0.321	0.384	0.427	0.380	0.386	0.367	0.397	0.348	0.432	0.371	0.393	0.409																																																																																				
765	0.318	0.380	0.422	0.377	0.383	0.364	0.393	0.344	0.428	0.368	0.389	0.405																																																																																				
766	0.314	0.375	0.417	0.372	0.378	0.359	0.388	0.340	0.422	0.363	0.384	0.400																																																																																				
767	0.309	0.370	0.411	0.367	0.373	0.354	0.382	0.335	0.417	0.358	0.379	0.394																																																																																				
768	0.304	0.365	0.405	0.361	0.368	0.349	0.377	0.331	0.411	0.353	0.374	0.389																																																																																				
769	0.300	0.360	0.400	0.357	0.363	0.345	0.372	0.326	0.405	0.349	0.369	0.384																																																																																				
770	0.295	0.355	0.394	0.352	0.358	0.340	0.366	0.322	0.400	0.344	0.364	0.378																																																																																				
771	0.291	0.351	0.389	0.347	0.354	0.336	0.362	0.318	0.395	0.340	0.359	0.374																																																																																				
772	0.288	0.346	0.384	0.343	0.349	0.332	0.357	0.314	0.390	0.336	0.355	0.369																																																																																				
773	0.283	0.342	0.379	0.338	0.344	0.327	0.352	0.309	0.385	0.331	0.350	0.364																																																																																				
774	0.280	0.337	0.374	0.334	0.341	0.323	0.348	0.306	0.380	0.327	0.346	0.359																																																																																				
775	0.276	0.333	0.369	0.330	0.336	0.319	0.343	0.301	0.374	0.322	0.341	0.354																																																																																				
776	0.272	0.329	0.364	0.325	0.332	0.315	0.339	0.298	0.370	0.318	0.337	0.350																																																																																				
777	0.269	0.325	0.360	0.322	0.329	0.311	0.335	0.294	0.366	0.315	0.333	0.346																																																																																				
778	0.265	0.320	0.355	0.317	0.324	0.307	0.330	0.290	0.360	0.310	0.329	0.341																																																																																				
779	0.261	0.317	0.350	0.313	0.320	0.303	0.326	0.286	0.356	0.306	0.325	0.337																																																																																				
780	0.257	0.312	0.345	0.308	0.315	0.298	0.321	0.282	0.351	0.302	0.320	0.332																																																																																				
781	0.254	0.308	0.340	0.304	0.311	0.295	0.317	0.279	0.346	0.298	0.316	0.328																																																																																				
782	0.251	0.304	0.336	0.301	0.308	0.291	0.313	0.275	0.342	0.295	0.312	0.324																																																																																				
783	0.247	0.300	0.332	0.297	0.304	0.287	0.309	0.272	0.338	0.291	0.308	0.319																																																																																				
784	0.244	0.296	0.327	0.293	0.300	0.283	0.304	0.268	0.333	0.287	0.304	0.315																																																																																				
785	0.240	0.292	0.323	0.289	0.296	0.280	0.300	0.265	0.329	0.283	0.300	0.311																																																																																				
786	0.237	0.289	0.318	0.285	0.292	0.276	0.296	0.261	0.324	0.279	0.296	0.307																																																																																				
787	0.234	0.285	0.314	0.281	0.289	0.273	0.292	0.258	0.320	0.276	0.293	0.303																																																																																				
788	0.231	0.281	0.310	0.278	0.285	0.269	0.289	0.254	0.316	0.272	0.289	0.299																																																																																				
789	0.228	0.278	0.306	0.275	0.282	0.266	0.285	0.251	0.312	0.269	0.286	0.295																																																																																				
790	0.225	0.274	0.303	0.271	0.279	0.263	0.282	0.248	0.308	0.266	0.282	0.292																																																																																				
791	0.222	0.271	0.299	0.268	0.276	0.259	0.278	0.245	0.304	0.263	0.279	0.288																																																																																				
792	0.219	0.268	0.295	0.264	0.272	0.256	0.275	0.242	0.301	0.259	0.275	0.284																																																																																				
793	0.216	0.265	0.291	0.261	0.269	0.253	0.271	0.239	0.297	0.256	0.272	0.281																																																																																				
794	0.213	0.261	0.287	0.257	0.265	0.250	0.267	0.236	0.293	0.253	0.268	0.277																																																																																				
795	0.210	0.257	0.283	0.254	0.262	0.246	0.264	0.233	0.289	0.249	0.265	0.273																																																																																				
796	0.208	0.255	0.280	0.251	0.259	0.243	0.261	0.230	0.286	0.246	0.262	0.270																																																																																				
797	0.205	0.252	0.276	0.248	0.256	0.240	0.258	0.227	0.282	0.243	0.259	0.267																																																																																				
798	0.203	0.249	0.273	0.245	0.253	0.238	0.255	0.225	0.279	0.241	0.256	0.264																																																																																				
799	0.200	0.245	0.269	0.242	0.251	0.235	0.251	0.222	0.275	0.237	0.253	0.260																																																																																				
800	0.198	0.243	0.266	0.239	0.247	0.232	0.248	0.219	0.272	0.235	0.250	0.257																																																																																				
801	0.195	0.239	0.263	0.236	0.244	0.229	0.245	0.217	0.269	0.232	0.247	0.254																																																																																				
802	0.193	0.237	0.260	0.234	0.241	0.227	0.242	0.214	0.266	0.229	0.244	0.251																																																																																				
803	0.190	0.234	0.257	0.231	0.239	0.224	0.239	0.212	0.263	0.227	0.241	0.248																																																																																				
804	0.188	0.231	0.254	0.228	0.236	0.222	0.237	0.209	0.260	0.224	0.238	0.245																																																																																				
805	0.186	0.229	0.251	0.225	0.234	0.219	0.234	0.207	0.256	0.222	0.236	0.242																																																																																				
806	0.184	0.226	0.248	0.223	0.231	0.216	0.231	0.205	0.254	0.219	0.233	0.240																																																																																				
807	0.181	0.224	0.245	0.220	0.228	0.214	0.228	0.202	0.251	0.216	0.230	0.237																																																																																				
808	0.179	0.221	0.242	0.218	0.226	0.211	0.226	0.200	0.248	0.214	0.228	0.234																																																																																				
809	0.177	0.219	0.239	0.215	0.224	0.209	0.223	0.198	0.245	0.212	0.226	0.232																																																																																				
810	0.175	0.216	0.236	0.213	0.222	0.207	0.221	0.196	0.242	0.209	0.223	0.229																																																																																				
811	0.174	0.214	0.234	0.211	0.219	0.204	0.218	0.193	0.240	0.207	0.221	0.227																																																																																				
812	0.172	0.212	0.231	0.208	0.217	0.202	0.216	0.191	0.237	0.205	0.218	0.224																																																																																				
813	0.170	0.209	0.229	0.206	0.214	0.200	0.213	0.189	0.234	0.203	0.216	0.222																																																																																				
814	0.168	0.207	0.226	0.204	0.212	0.198	0.211	0.187	0.232	0.200	0.214	0.219																																																																																				
815	0.166	0.204	0.223	0.201	0.210	0.196	0.208	0.185	0.229	0.198	0.211	0.217																																																																																				
816	0.164	0.202	0.221	0.199	0.208	0.194	0.206	0.183	0.227	0.196	0.209	0.214																																																																																				
817	0.163	0.201	0.219	0.197	0.206	0.192	0.204	0.181	0.225	0.194	0.207	0.212																																																																																				
818	0.160	0.198	0.216	0.195	0.204	0.190	0.202	0.179	0.222	0.192	0.205	0.210																																																																																				
819	0.159	0.197	0.213	0.193	0.201	0.187	0.200	0.177	0.219	0.190	0.203	0.207																																																																																				
820	0.157	0.195	0.211	0.190	0.198	0.185	0.197	0.174	0.216	0.187	0.200	0.205																																																																																				
821	0.155	0.193	0.208	0.187	0.196	0.183	0.194	0.172	0.214	0.185	0.197	0.202																																																																																				
822	0.153	0.190	0.206	0.186	0.195	0.181	0.193	0.171	0.212	0.183	0.196	0.200																																																																																				
823	0.152	0.189	0.205	0.185	0.194	0.180	0.191	0.170	0.210	0.182	0.195	0.199																																																																																				
824	0.152	0.187	0.204	0.184	0.194	0.179	0.191	0.169	0.209	0.181	0.194	0.198																																																																																				
825	0.151	0.186	0.203	0.183	0.193	0.178	0.190	0.169	0.208	0.180	0.193	0.197																																																																																				
826	0.150	0.184	0.201	0.181	0.191	0.176	0.188	0.167	0.206	0.178	0.191	0.195																																																																																				
827	0.148	0.182	0.199	0.179	0.189	0.175	0.185	0.165	0.204	0.176	0.189	0.193																																																																																				
828	0.147	0.181	0.197	0.178	0.187	0.173	0.184	0.164	0.202	0.175	0.187	0.191																																																																																				
829	0.147	0.179	0.196	0.177	0.187	0.172	0.183	0.163	0.201	0.174	0.186	0.190																																																																																				
830	0.146	0.178	0.194	0.176	0.186	0.171	0.182	0.162	0.200	0.173	0.185	0.189																																																																																				
831	0.145	0.177	0.193	0.174	0.184	0.170	0.180	0.160	0.198	0.172	0.183	0.187																																																																																				
832	0.143	0.176	0.190	0.172	0.181	0.168	0.178	0.158	0.196	0.170	0.181	0.185																																																																																				
833	0.142	0.174	0.188	0.171	0.180	0.166	0.176	0.157	0.194	0.168	0.180	0.183																																																																																				
834	0.141	0.173	0.187	0.169	0.179	0.165	0.175	0.156	0.193	0.167	0.179	0.182																																																																																				
835	0.141	0.171	0.186	0.169	0.178	0.164	0.174	0.155	0.191	0.166	0.177	0.181																																																																																				
836	0.140	0.170	0.185	0.168	0.177	0.163	0.173	0.154	0.190	0.165	0.176	0.179																																																																																				
837	0.139	0.169	0.183	0.166	0.176	0.162	0.172	0.153	0.188	0.164	0.175	0.178																																																																																				
838	0.137	0.167	0.181	0.165	0.174	0.160	0.170	0.151	0.186	0.162	0.173	0.176																																																																																				
839	0.136	0.165	0.179	0.163	0.172	0.158	0.168	0.150	0.185	0.160	0.172	0.174																																																																																				
840	0.135	0.164	0.178	0.161	0.171	0.157	0.166	0.148	0.183	0.159	0.170	0.173																																																																																				
841	0.134	0.163	0.176	0.160	0.170	0.156	0.165	0.147	0.182	0.158	0.169	0.171																																																																																				
842	0.133	0.161	0.175	0.159	0.169	0.155	0.164	0.146	0.180	0.156	0.168	0.170																																																																																				
843	0.132	0.160	0.174	0.158	0.167	0.154	0.162	0.145	0.179	0.155	0.166	0.169																																																																																				
844	0.131	0.159	0.172	0.156	0.166	0.152	0.161	0.144	0.177	0.154	0.165	0.167																																																																																				
845	0.130	0.157	0.170	0.155	0.164	0.151	0.159	0.142	0.176	0.152	0.163	0.166																																																																																				
846	0.129	0.156	0.169	0.154	0.163	0.150	0.158	0.141	0.174	0.151	0.162	0.164																																																																																				
847	0.128	0.154	0.167	0.152	0.162	0.148	0.157	0.140	0.173	0.150	0.161	0.163																																																																																				
848	0.127	0.153	0.166	0.151	0.161	0.147	0.156	0.139	0.171	0.149	0.160	0.162																																																																																				
849	0.126	0.152	0.165	0.150	0.160	0.146	0.154	0.138	0.170	0.148	0.159	0.161																																																																																				
850	0.125	0.151	0.163	0.149	0.159	0.145	0.153	0.137	0.169	0.147	0.158	0.159																																																																																				
851	0.124	0.150	0.162	0.148	0.157	0.144	0.152	0.136	0.168	0.145	0.156	0.158																																																																																				
852	0.124	0.149	0.161	0.147	0.156	0.143	0.151	0.135	0.166	0.144	0.155	0.157																																																																																				
853	0.123	0.148	0.160	0.146	0.155	0.142	0.150	0.134	0.165	0.143	0.154	0.156																																																																																				
854	0.122	0.147	0.159	0.144	0.154	0.141	0.148	0.133	0.164	0.142	0.153	0.154																																																																																				
855	0.122	0.146	0.157	0.144	0.153	0.140	0.148	0.132	0.163	0.141	0.152	0.153																																																																																				
856	0.121	0.144	0.156	0.142	0.152	0.139	0.146	0.131	0.162	0.140	0.151	0.152																																																																																				
857	0.120	0.144	0.155	0.142	0.151	0.138	0.145	0.130	0.160	0.139	0.150	0.151																																																																																				
858	0.119	0.142	0.154	0.141	0.150	0.137	0.144	0.129	0.159	0.138	0.149	0.150																																																																																				
859	0.119	0.141	0.153	0.140	0.149	0.136	0.143	0.129	0.158	0.137	0.148	0.149																																																																																				
860	0.118	0.141	0.152	0.139	0.148	0.135	0.142	0.128	0.157	0.136	0.147	0.148																																																																																				
861	0.117	0.140	0.151	0.138	0.147	0.135	0.141	0.127	0.156	0.136	0.146	0.147																																																																																				
862	0.117	0.139	0.150	0.137	0.147	0.134	0.141	0.126	0.155	0.135	0.145	0.146																																																																																				
863	0.116	0.138	0.149	0.136	0.146	0.133	0.140	0.125	0.154	0.134	0.144	0.145																																																																																				
864	0.116	0.137	0.148	0.136	0.145	0.132	0.139	0.124	0.153	0.133	0.143	0.144																																																																																				
865	0.115	0.136	0.147	0.135	0.144	0.131	0.138	0.124	0.152	0.133	0.143	0.144																																																																																				
866	0.115	0.136	0.147	0.134	0.144	0.131	0.137	0.123	0.152	0.132	0.142	0.143																																																																																				
867	0.114	0.135	0.146	0.134	0.143	0.130	0.137	0.123	0.151	0.132	0.141	0.142																																																																																				
868	0.114	0.135	0.145	0.133	0.142	0.130	0.136	0.122	0.150	0.131	0.140	0.142																																																																																				
869	0.114	0.134	0.144	0.132	0.142	0.129	0.136	0.122	0.150	0.130	0.140	0.141																																																																																				
870	0.114	0.133	0.144	0.132	0.141	0.129	0.135	0.121	0.149	0.130	0.139	0.141																																																																																				
871	0.113	0.133	0.143	0.132	0.141	0.128	0.135	0.121	0.148	0.129	0.139	0.140																																																																																				
872	0.113	0.132	0.143	0.131	0.140	0.128	0.134	0.120	0.148	0.129	0.138	0.140																																																																																				
873	0.113	0.132	0.142	0.131	0.140	0.128	0.134	0.120	0.147	0.129	0.137	0.139																																																																																				
874	0.113	0.131	0.141	0.130	0.139	0.127	0.133	0.119	0.147	0.128	0.137	0.138																																																																																				
875	0.112	0.131	0.141	0.129	0.138	0.126	0.133	0.119	0.146	0.128	0.136	0.138																																																																																				
876	0.112	0.130	0.140	0.129	0.138	0.126	0.132	0.118	0.145	0.127	0.135	0.137																																																																																				
877	0.111	0.130	0.139	0.128	0.137	0.125	0.131	0.117	0.144	0.126	0.135	0.136																																																																																				
878	0.110	0.130	0.138	0.127	0.135	0.124	0.130	0.116	0.143	0.125	0.134	0.135																																																																																				
879	0.109	0.130	0.137	0.125	0.133	0.123	0.128	0.115	0.142	0.124	0.132	0.134																																																																																				
880	0.108	0.127	0.135	0.124	0.133	0.121	0.127	0.114	0.141	0.122	0.132	0.133																																																																																				
881	0.107	0.125	0.135	0.124	0.133	0.121	0.126	0.114	0.140	0.122	0.131	0.132																																																																																				
882	0.107	0.124	0.134	0.123	0.133	0.121	0.126	0.113	0.139	0.121	0.131	0.131																																																																																				
883	0.107	0.123	0.134	0.123	0.134	0.120	0.126	0.113	0.138	0.121	0.130	0.131																																																																																				
884	0.107	0.123	0.133	0.123	0.133	0.120	0.126	0.113	0.137	0.120	0.130	0.130																																																																																				
885	0.106	0.122	0.133	0.122	0.133	0.119	0.125	0.112	0.137	0.120	0.129	0.129																																																																																				
886	0.105	0.121	0.131	0.121	0.131	0.118	0.123	0.111	0.136	0.118	0.128	0.128																																																																																				
887	0.105	0.121	0.130	0.120	0.130	0.117	0.122	0.110	0.135	0.118	0.127	0.127																																																																																				
888	0.104	0.120	0.130	0.119	0.129	0.117	0.122	0.110	0.134	0.117	0.126	0.127																																																																																				
889	0.104	0.120	0.129	0.119	0.129	0.116	0.121	0.109	0.134	0.116	0.126	0.126																																																																																				
890	0.103	0.119	0.128	0.118	0.128	0.115	0.120	0.108	0.133	0.116	0.125	0.125																																																																																				
891	0.103	0.119	0.128	0.117	0.127	0.115	0.120	0.108	0.132	0.115	0.125	0.124																																																																																				
892	0.103	0.119	0.127	0.117	0.127	0.114	0.119	0.107	0.132	0.115	0.124	0.124																																																																																				
893	0.102	0.118	0.126	0.116	0.125	0.113	0.118	0.106	0.131	0.114	0.123	0.123																																																																																				
894	0.102	0.117	0.125	0.115	0.125	0.113	0.118	0.106	0.130	0.113	0.123	0.122																																																																																				
895	0.102	0.116	0.125	0.115	0.125	0.112	0.117	0.106	0.130	0.113	0.122	0.122																																																																																				
896	0.101	0.115	0.124	0.115	0.125	0.112	0.117	0.106	0.129	0.113	0.122	0.122																																																																																				
897	0.101	0.115	0.124	0.115	0.126	0.112	0.117	0.106	0.129	0.113	0.122	0.121																																																																																				
898	0.101	0.115	0.124	0.115	0.125	0.112	0.117	0.105	0.128	0.112	0.121	0.121																																																																																				
899	0.101	0.115	0.123	0.114	0.124	0.111	0.116	0.105	0.128	0.112	0.121	0.120																																																																																				
900	0.101	0.115	0.123	0.113	0.124	0.111	0.116	0.104	0.128	0.111	0.120	0.120																																																																																				
901	0.100	0.115	0.122	0.113	0.123	0.110	0.115	0.104	0.127	0.111	0.120	0.120																																																																																				
902	0.100	0.115	0.122	0.112	0.122	0.110	0.115	0.103	0.127	0.110	0.119	0.119																																																																																				
903	0.100	0.114	0.121	0.112	0.121	0.109	0.114	0.103	0.127	0.110	0.119	0.119																																																																																				
904	0.100	0.113	0.121	0.112	0.122	0.109	0.114	0.103	0.126	0.110	0.119	0.118																																																																																				
905	0.100	0.112	0.121	0.112	0.122	0.109	0.114	0.103	0.126	0.110	0.119	0.118																																																																																				
906	0.100	0.112	0.121	0.112	0.123	0.109	0.114	0.103	0.125	0.109	0.118	0.118																																																																																				
907	0.100	0.112	0.121	0.112	0.123	0.109	0.114	0.103	0.124	0.109	0.118	0.118																																																																																				
908	0.099	0.112	0.120	0.111	0.122	0.108	0.113	0.102	0.124	0.109	0.117	0.117																																																																																				
909	0.100	0.112	0.120	0.111	0.121	0.108	0.113	0.102	0.125	0.109	0.117	0.117																																																																																				
910	0.100	0.112	0.120	0.111	0.121	0.108	0.113	0.102	0.124	0.108	0.117	0.117																																																																																				
911	0.100	0.112	0.120	0.111	0.120	0.108	0.113	0.102	0.124	0.108	0.117	0.117																																																																																				
912	0.100	0.113	0.120	0.111	0.120	0.108	0.113	0.102	0.124	0.108	0.117	0.117																																																																																				
913	0.100	0.114	0.120	0.111	0.120	0.108	0.113	0.102	0.124	0.108	0.117	0.117																																																																																				
914	0.100	0.113	0.120	0.110	0.119	0.108	0.112	0.101	0.124	0.108	0.117	0.117																																																																																				
915	0.100	0.112	0.120	0.110	0.120	0.108	0.112	0.102	0.125	0.108	0.117	0.117																																																																																				
916	0.101	0.111	0.120	0.111	0.121	0.108	0.113	0.102	0.124	0.108	0.117	0.117																																																																																				
917	0.101	0.111	0.120	0.111	0.122	0.108	0.113	0.102	0.124	0.108	0.117	0.117																																																																																				
918	0.101	0.111	0.120	0.111	0.122	0.108	0.113	0.102	0.124	0.109	0.117	0.117																																																																																				
919	0.102	0.111	0.121	0.112	0.123	0.109	0.114	0.103	0.124	0.109	0.118	0.117																																																																																				
920	0.102	0.112	0.121	0.112	0.123	0.109	0.114	0.103	0.125	0.109	0.118	0.117																																																																																				
921	0.103	0.113	0.122	0.113	0.123	0.110	0.114	0.103	0.126	0.110	0.118	0.118																																																																																				
922	0.104	0.113	0.123	0.113	0.124	0.110	0.115	0.104	0.126	0.110	0.119	0.119																																																																																				
923	0.105	0.114	0.123	0.114	0.124	0.111	0.116	0.104	0.127	0.111	0.120	0.119																																																																																				
924	0.106	0.115	0.124	0.115	0.125	0.112	0.117	0.105	0.128	0.112	0.121	0.120																																																																																				
925	0.107	0.116	0.125	0.116	0.126	0.113	0.117	0.106	0.129	0.112	0.121	0.121																																																																																				
926	0.108	0.117	0.126	0.117	0.127	0.114	0.118	0.107	0.130	0.113	0.122	0.122																																																																																				
927	0.110	0.118	0.128	0.118	0.128	0.115	0.120	0.108	0.131	0.114	0.123	0.123																																																																																				
928	0.111	0.119	0.129	0.119	0.128	0.116	0.120	0.109	0.132	0.115	0.124	0.124																																																																																				
929	0.112	0.120	0.130	0.120	0.130	0.117	0.122	0.110	0.134	0.116	0.126	0.126																																																																																				
930	0.114	0.121	0.132	0.121	0.131	0.118	0.123	0.111	0.135	0.117	0.127	0.127																																																																																				
931	0.116	0.122	0.133	0.123	0.133	0.119	0.124	0.112	0.136	0.118	0.128	0.128																																																																																				
932	0.117	0.124	0.135	0.124	0.134	0.120	0.126	0.113	0.138	0.120	0.129	0.129																																																																																				
933	0.119	0.126	0.137	0.126	0.136	0.122	0.128	0.115	0.140	0.121	0.131	0.131																																																																																				
934	0.121	0.128	0.139	0.128	0.137	0.124	0.130	0.116	0.142	0.123	0.133	0.133																																																																																				
935	0.123	0.130	0.141	0.130	0.139	0.125	0.131	0.118	0.144	0.124	0.135	0.135																																																																																				
936	0.126	0.131	0.143	0.131	0.141	0.127	0.133	0.120	0.146	0.126	0.136	0.136																																																																																				
937	0.127	0.133	0.145	0.133	0.143	0.129	0.135	0.121	0.147	0.127	0.138	0.138																																																																																				
938	0.130	0.134	0.147	0.135	0.145	0.130	0.137	0.123	0.149	0.129	0.140	0.140																																																																																				
939	0.132	0.136	0.149	0.137	0.147	0.132	0.139	0.124	0.151	0.130	0.141	0.141																																																																																				
940	0.134	0.138	0.151	0.139	0.149	0.134	0.141	0.126	0.152	0.132	0.143	0.143																																																																																				
941	0.137	0.140	0.154	0.141	0.151	0.136	0.143	0.128	0.155	0.134	0.145	0.146																																																																																				
942	0.139	0.143	0.157	0.144	0.153	0.138	0.145	0.130	0.158	0.136	0.148	0.148																																																																																				
943	0.142	0.145	0.160	0.146	0.156	0.141	0.148	0.133	0.161	0.139	0.150	0.151																																																																																				
944	0.146	0.148	0.163	0.150	0.159	0.143	0.151	0.136	0.164	0.141	0.153	0.154																																																																																				
945	0.149	0.151	0.167	0.152	0.162	0.146	0.154	0.138	0.167	0.144	0.156	0.157																																																																																				
946	0.153	0.154	0.171	0.156	0.165	0.149	0.157	0.141	0.171	0.147	0.159	0.160																																																																																				
947	0.157	0.159	0.175	0.160	0.169	0.153	0.162	0.144	0.175	0.150	0.163	0.164																																																																																				
948	0.162	0.162	0.180	0.164	0.173	0.157	0.166	0.148	0.179	0.154	0.167	0.168																																																																																				
949	0.167	0.166	0.185	0.168	0.178	0.161	0.170	0.152	0.184	0.158	0.171	0.172																																																																																				
950	0.172	0.170	0.190	0.173	0.182	0.165	0.175	0.156	0.188	0.162	0.176	0.176																																																																																				
951	0.177	0.175	0.195	0.178	0.187	0.169	0.180	0.160	0.193	0.166	0.180	0.181																																																																																				
952	0.181	0.179	0.200	0.182	0.191	0.173	0.184	0.164	0.197	0.169	0.184	0.185																																																																																				
953	0.187	0.184	0.205	0.187	0.196	0.178	0.189	0.168	0.202	0.174	0.189	0.190																																																																																				
954	0.193	0.189	0.211	0.192	0.201	0.182	0.194	0.172	0.208	0.178	0.194	0.195																																																																																				
955	0.199	0.195	0.218	0.198	0.207	0.188	0.200	0.178	0.214	0.184	0.199	0.201																																																																																				
956	0.204	0.199	0.224	0.203	0.211	0.192	0.204	0.182	0.219	0.188	0.204	0.206																																																																																				
957	0.209	0.204	0.229	0.208	0.216	0.197	0.209	0.186	0.225	0.192	0.208	0.211																																																																																				
958	0.213	0.207	0.233	0.211	0.220	0.200	0.213	0.189	0.228	0.195	0.212	0.214																																																																																				
959	0.218	0.211	0.237	0.215	0.223	0.203	0.217	0.192	0.232	0.198	0.215	0.218																																																																																				
960	0.220	0.213	0.240	0.217	0.225	0.206	0.219	0.195	0.235	0.200	0.218	0.220																																																																																				
961	0.223	0.215	0.242	0.220	0.228	0.208	0.221	0.196	0.237	0.202	0.220	0.222																																																																																				
962	0.225	0.217	0.244	0.221	0.229	0.209	0.223	0.198	0.239	0.203	0.221	0.224																																																																																				
963	0.226	0.218	0.246	0.223	0.230	0.210	0.224	0.199	0.240	0.205	0.222	0.225																																																																																				
964	0.227	0.220	0.247	0.224	0.231	0.211	0.225	0.200	0.241	0.205	0.223	0.226																																																																																				
965	0.228	0.220	0.248	0.224	0.232	0.212	0.226	0.200	0.242	0.206	0.224	0.227																																																																																				
966	0.229	0.221	0.248	0.225	0.232	0.212	0.227	0.201	0.243	0.207	0.225	0.227																																																																																				
967	0.230	0.221	0.249	0.225	0.233	0.213	0.227	0.201	0.243	0.207	0.225	0.228																																																																																				
968	0.230	0.222	0.249	0.226	0.234	0.213	0.228	0.202	0.244	0.207	0.226	0.228																																																																																				
969	0.231	0.222	0.250	0.226	0.234	0.214	0.228	0.202	0.244	0.207	0.226	0.229																																																																																				
970	0.231	0.222	0.250	0.226	0.234	0.214	0.228	0.202	0.244	0.208	0.226	0.229																																																																																				
971	0.231	0.222	0.250	0.227	0.235	0.214	0.228	0.202	0.244	0.208	0.226	0.229																																																																																				
972	0.231	0.222	0.250	0.227	0.235	0.214	0.228	0.202	0.244	0.208	0.226	0.229																																																																																				
973	0.231	0.222	0.250	0.227	0.234	0.214	0.228	0.202	0.244	0.208	0.226	0.229																																																																																				
974	0.231	0.223	0.250	0.227	0.234	0.214	0.228	0.202	0.244	0.208	0.226	0.229																																																																																				
975	0.231	0.224	0.250	0.226	0.233	0.214	0.228	0.202	0.244	0.207	0.226	0.229																																																																																				
976	0.230	0.224	0.249	0.225	0.232	0.213	0.227	0.201	0.243	0.207	0.225	0.228																																																																																				
977	0.230	0.222	0.248	0.224	0.231	0.212	0.226	0.200	0.243	0.206	0.224	0.227																																																																																				
978	0.229	0.220	0.248	0.224	0.231	0.212	0.226	0.200	0.243	0.206	0.224	0.227																																																																																				
979	0.229	0.219	0.247	0.224	0.232	0.212	0.226	0.200	0.242	0.205	0.224	0.226																																																																																				
980	0.229	0.218	0.247	0.224	0.233	0.212	0.226	0.200	0.241	0.205	0.224	0.226																																																																																				
981	0.229	0.218	0.247	0.224	0.233	0.211	0.226	0.200	0.240	0.205	0.224	0.226																																																																																				
982	0.228	0.218	0.246	0.223	0.233	0.211	0.225	0.200	0.239	0.205	0.223	0.225																																																																																				
983	0.227	0.217	0.245	0.222	0.232	0.210	0.224	0.199	0.238	0.204	0.221	0.224																																																																																				
984	0.225	0.215	0.243	0.220	0.229	0.208	0.222	0.197	0.237	0.202	0.219	0.222																																																																																				
985	0.223	0.214	0.241	0.219	0.226	0.206	0.220	0.195	0.235	0.200	0.218	0.220																																																																																				
986	0.222	0.213	0.239	0.217	0.225	0.205	0.218	0.194	0.234	0.199	0.216	0.219																																																																																				
987	0.220	0.212	0.237	0.215	0.222	0.203	0.217	0.192	0.232	0.198	0.215	0.217																																																																																				
988	0.218	0.212	0.235	0.213	0.220	0.201	0.215	0.190	0.230	0.196	0.213	0.215																																																																																				
989	0.216	0.210	0.233	0.211	0.217	0.200	0.213	0.188	0.229	0.194	0.211	0.214																																																																																				
990	0.213	0.207	0.231	0.208	0.215	0.198	0.210	0.186	0.227	0.192	0.209	0.212																																																																																				
991	0.212	0.205	0.230	0.208	0.215	0.197	0.209	0.186	0.226	0.192	0.208	0.210																																																																																				
992	0.212	0.203	0.229	0.207	0.215	0.196	0.209	0.185	0.225	0.191	0.208	0.209																																																																																				
993	0.211	0.202	0.228	0.207	0.216	0.196	0.209	0.185	0.223	0.191	0.207	0.209																																																																																				
994	0.211	0.201	0.227	0.206	0.216	0.195	0.208	0.185	0.222	0.190	0.207	0.208																																																																																				
995	0.209	0.200	0.226	0.205	0.215	0.194	0.207	0.184	0.220	0.189	0.205	0.207																																																																																				
996	0.207	0.199	0.224	0.203	0.213	0.192	0.205	0.182	0.218	0.187	0.203	0.205																																																																																				
997	0.205	0.196	0.221	0.201	0.209	0.190	0.202	0.180	0.216	0.185	0.201	0.202																																																																																				
998	0.202	0.194	0.218	0.198	0.206	0.188	0.200	0.178	0.214	0.183	0.198	0.200																																																																																				
999	0.200	0.192	0.215	0.196	0.204	0.185	0.197	0.175	0.212	0.180	0.196	0.198																																																																																				

结果
	1	2	3	4	5	6	7	8	9	10	11	12
A	1.178	1.152	1.329	1.187	1.166	1.110	1.208	1.055	1.278	1.074	1.161	1.193	Mean Max OD [Spectrum]
B	?????	?????	?????	?????	?????	?????	?????	?????	?????	?????	?????	?????	Mean Max OD [Spectrum]
C	?????	?????	?????	?????	?????	?????	?????	?????	?????	?????	?????	?????	Mean Max OD [Spectrum]
D	?????	?????	?????	?????	?????	?????	?????	?????	?????	?????	?????	?????	Mean Max OD [Spectrum]
E	?????	?????	?????	?????	?????	?????	?????	?????	?????	?????	?????	?????	Mean Max OD [Spectrum]
F	?????	?????	?????	?????	?????	?????	?????	?????	?????	?????	?????	?????	Mean Max OD [Spectrum]
G	?????	?????	?????	?????	?????	?????	?????	?????	?????	?????	?????	?????	Mean Max OD [Spectrum]
H	?????	?????	?????	?????	?????	?????	?????	?????	?????	?????	?????	?????	Mean Max OD [Spectrum]

