

软件版本	3.11.19



实验文件路径:	
方案文件路径:	



板编号	板 1
日期	2023/3/22
时间	10:05:57
检测仪类型:	Epoch 2
检测仪序列号:	2205170B
检测类型	检测仪

程序详细信息

板类型	96 WELL PLATE
完成后弹出板	
检测	吸收光 光谱
	H1..H12
	开始: 400 nm,  停止: 999 nm,  步骤: 1 nm
	检测前校准
	检测速度: 正常,  延迟: 100 msec,  测量值/数据点: 8

Spectrum

波长	A1	A2	A3	A4	A5	A6	A7	A8	A9	A10	A11	A12	B1	B2	B3	B4	B5	B6	B7	B8	B9	B10	B11	B12	C1	C2	C3	C4	C5	C6	C7	C8	C9	C10	C11	C12	D1	D2	D3	D4	D5	D6	D7	D8	D9	D10	D11	D12	E1	E2	E3	E4	E5	E6	E7	E8	E9	E10	E11	E12	F1	F2	F3	F4	F5	F6	F7	F8	F9	F10	F11	F12	G1	G2	G3	G4	G5	G6	G7	G8	G9	G10	G11	G12	H1	H2	H3	H4	H5	H6	H7	H8	H9	H10	H11	H12
400																																																																																					0.489	0.569	0.577	0.482	0.522	0.429	0.405	0.564	0.445	0.430	0.398	0.449
401																																																																																					0.488	0.568	0.575	0.481	0.521	0.428	0.404	0.563	0.444	0.429	0.397	0.447
402																																																																																					0.487	0.566	0.574	0.480	0.520	0.426	0.403	0.561	0.443	0.428	0.396	0.446
403																																																																																					0.485	0.565	0.572	0.479	0.518	0.425	0.402	0.560	0.442	0.427	0.395	0.445
404																																																																																					0.484	0.563	0.571	0.477	0.517	0.424	0.401	0.558	0.440	0.426	0.394	0.444
405																																																																																					0.483	0.562	0.569	0.476	0.515	0.423	0.400	0.557	0.439	0.425	0.393	0.443
406																																																																																					0.482	0.561	0.568	0.475	0.514	0.422	0.399	0.556	0.438	0.424	0.392	0.442
407																																																																																					0.481	0.560	0.567	0.474	0.513	0.421	0.398	0.555	0.437	0.423	0.391	0.441
408																																																																																					0.480	0.558	0.565	0.473	0.512	0.420	0.397	0.553	0.436	0.422	0.390	0.440
409																																																																																					0.479	0.557	0.564	0.472	0.511	0.419	0.396	0.552	0.435	0.421	0.389	0.439
410																																																																																					0.477	0.555	0.563	0.471	0.509	0.418	0.395	0.550	0.434	0.420	0.388	0.438
411																																																																																					0.476	0.554	0.561	0.470	0.508	0.417	0.394	0.549	0.433	0.419	0.387	0.437
412																																																																																					0.475	0.553	0.560	0.469	0.507	0.416	0.393	0.548	0.432	0.417	0.386	0.435
413																																																																																					0.474	0.552	0.559	0.467	0.506	0.415	0.392	0.546	0.431	0.416	0.386	0.434
414																																																																																					0.473	0.550	0.558	0.466	0.504	0.414	0.392	0.545	0.430	0.416	0.385	0.434
415																																																																																					0.472	0.549	0.557	0.465	0.503	0.413	0.391	0.544	0.429	0.415	0.384	0.432
416																																																																																					0.471	0.548	0.555	0.464	0.502	0.412	0.390	0.543	0.428	0.414	0.383	0.431
417																																																																																					0.470	0.547	0.554	0.463	0.501	0.412	0.389	0.541	0.427	0.413	0.382	0.430
418																																																																																					0.469	0.546	0.553	0.462	0.500	0.411	0.388	0.540	0.426	0.412	0.381	0.429
419																																																																																					0.468	0.544	0.552	0.461	0.498	0.410	0.387	0.539	0.425	0.411	0.381	0.428
420																																																																																					0.467	0.543	0.551	0.460	0.497	0.409	0.386	0.538	0.424	0.410	0.380	0.428
421																																																																																					0.466	0.542	0.550	0.459	0.496	0.408	0.385	0.536	0.423	0.409	0.379	0.427
422																																																																																					0.465	0.541	0.549	0.459	0.495	0.407	0.385	0.535	0.423	0.408	0.378	0.426
423																																																																																					0.464	0.540	0.548	0.458	0.494	0.406	0.384	0.534	0.422	0.407	0.378	0.425
424																																																																																					0.464	0.539	0.547	0.457	0.493	0.406	0.383	0.533	0.421	0.407	0.377	0.424
425																																																																																					0.463	0.538	0.546	0.456	0.492	0.405	0.382	0.532	0.420	0.406	0.376	0.423
426																																																																																					0.462	0.537	0.545	0.455	0.491	0.404	0.381	0.531	0.419	0.405	0.375	0.423
427																																																																																					0.461	0.536	0.544	0.454	0.490	0.403	0.381	0.530	0.418	0.404	0.375	0.422
428																																																																																					0.460	0.535	0.543	0.453	0.489	0.403	0.380	0.529	0.418	0.403	0.374	0.421
429																																																																																					0.459	0.534	0.542	0.453	0.488	0.402	0.379	0.528	0.417	0.403	0.373	0.420
430																																																																																					0.458	0.533	0.541	0.452	0.487	0.401	0.378	0.527	0.416	0.402	0.373	0.419
431																																																																																					0.457	0.532	0.540	0.451	0.486	0.400	0.378	0.526	0.415	0.401	0.372	0.419
432																																																																																					0.457	0.531	0.539	0.450	0.485	0.399	0.377	0.525	0.414	0.400	0.371	0.418
433																																																																																					0.456	0.530	0.538	0.449	0.484	0.398	0.376	0.523	0.413	0.400	0.371	0.417
434																																																																																					0.455	0.529	0.537	0.448	0.483	0.398	0.375	0.522	0.413	0.399	0.370	0.416
435																																																																																					0.454	0.528	0.536	0.447	0.482	0.397	0.375	0.521	0.412	0.398	0.369	0.415
436																																																																																					0.453	0.527	0.535	0.447	0.481	0.396	0.374	0.520	0.411	0.397	0.369	0.415
437																																																																																					0.452	0.526	0.534	0.446	0.480	0.395	0.373	0.519	0.410	0.397	0.368	0.414
438																																																																																					0.451	0.525	0.533	0.445	0.479	0.394	0.372	0.518	0.409	0.396	0.367	0.413
439																																																																																					0.451	0.524	0.532	0.444	0.478	0.394	0.372	0.517	0.409	0.395	0.367	0.412
440																																																																																					0.450	0.523	0.531	0.444	0.477	0.393	0.371	0.516	0.408	0.394	0.366	0.412
441																																																																																					0.449	0.522	0.530	0.443	0.476	0.392	0.370	0.515	0.407	0.394	0.366	0.411
442																																																																																					0.449	0.522	0.530	0.442	0.476	0.392	0.370	0.514	0.406	0.393	0.365	0.411
443																																																																																					0.448	0.521	0.529	0.442	0.475	0.391	0.369	0.513	0.406	0.392	0.365	0.410
444																																																																																					0.447	0.520	0.528	0.441	0.474	0.390	0.368	0.512	0.405	0.392	0.364	0.409
445																																																																																					0.447	0.519	0.527	0.440	0.473	0.390	0.368	0.512	0.405	0.391	0.364	0.409
446																																																																																					0.446	0.518	0.526	0.440	0.472	0.389	0.367	0.511	0.404	0.391	0.363	0.408
447																																																																																					0.445	0.517	0.526	0.439	0.472	0.388	0.366	0.510	0.403	0.390	0.363	0.407
448																																																																																					0.445	0.517	0.525	0.439	0.471	0.388	0.366	0.509	0.402	0.390	0.362	0.407
449																																																																																					0.444	0.516	0.524	0.438	0.470	0.387	0.365	0.508	0.402	0.389	0.362	0.407
450																																																																																					0.444	0.516	0.524	0.437	0.469	0.386	0.365	0.507	0.401	0.388	0.362	0.406
451																																																																																					0.443	0.515	0.523	0.437	0.469	0.386	0.364	0.506	0.401	0.388	0.361	0.406
452																																																																																					0.443	0.514	0.522	0.436	0.468	0.385	0.363	0.505	0.400	0.387	0.361	0.405
453																																																																																					0.442	0.514	0.522	0.436	0.467	0.385	0.363	0.505	0.400	0.387	0.360	0.405
454																																																																																					0.442	0.513	0.521	0.435	0.466	0.384	0.362	0.504	0.399	0.386	0.360	0.404
455																																																																																					0.441	0.512	0.521	0.435	0.466	0.384	0.362	0.503	0.398	0.386	0.360	0.404
456																																																																																					0.441	0.512	0.520	0.434	0.465	0.383	0.361	0.502	0.398	0.386	0.359	0.403
457																																																																																					0.440	0.511	0.520	0.434	0.465	0.383	0.361	0.502	0.397	0.385	0.359	0.403
458																																																																																					0.440	0.511	0.519	0.434	0.464	0.382	0.360	0.501	0.397	0.385	0.359	0.403
459																																																																																					0.440	0.511	0.519	0.433	0.463	0.382	0.360	0.501	0.397	0.384	0.359	0.402
460																																																																																					0.440	0.510	0.519	0.433	0.463	0.381	0.360	0.500	0.396	0.384	0.359	0.402
461																																																																																					0.440	0.510	0.519	0.433	0.463	0.381	0.359	0.500	0.396	0.384	0.359	0.402
462																																																																																					0.439	0.510	0.519	0.433	0.462	0.381	0.359	0.500	0.396	0.384	0.359	0.402
463																																																																																					0.439	0.510	0.518	0.433	0.462	0.381	0.359	0.499	0.396	0.384	0.359	0.402
464																																																																																					0.439	0.510	0.518	0.433	0.462	0.380	0.358	0.499	0.395	0.384	0.359	0.402
465																																																																																					0.439	0.510	0.518	0.433	0.462	0.380	0.358	0.498	0.395	0.384	0.359	0.402
466																																																																																					0.439	0.510	0.518	0.433	0.461	0.380	0.358	0.498	0.395	0.384	0.359	0.402
467																																																																																					0.439	0.510	0.518	0.433	0.461	0.380	0.358	0.498	0.395	0.384	0.359	0.402
468																																																																																					0.440	0.510	0.519	0.433	0.461	0.380	0.358	0.498	0.395	0.384	0.359	0.402
469																																																																																					0.440	0.510	0.519	0.434	0.461	0.380	0.358	0.498	0.395	0.384	0.359	0.402
470																																																																																					0.440	0.511	0.520	0.434	0.461	0.380	0.358	0.498	0.395	0.384	0.360	0.403
471																																																																																					0.441	0.511	0.520	0.434	0.461	0.380	0.358	0.498	0.395	0.384	0.360	0.403
472																																																																																					0.441	0.512	0.521	0.435	0.462	0.380	0.358	0.499	0.396	0.385	0.361	0.403
473																																																																																					0.442	0.512	0.521	0.435	0.462	0.380	0.358	0.499	0.396	0.385	0.361	0.404
474																																																																																					0.443	0.513	0.522	0.436	0.462	0.381	0.359	0.499	0.396	0.386	0.362	0.405
475																																																																																					0.444	0.514	0.523	0.437	0.463	0.381	0.359	0.500	0.397	0.386	0.363	0.406
476																																																																																					0.445	0.515	0.524	0.438	0.464	0.382	0.360	0.501	0.398	0.387	0.364	0.406
477																																																																																					0.446	0.517	0.526	0.439	0.465	0.382	0.360	0.502	0.398	0.388	0.365	0.407
478																																																																																					0.447	0.518	0.527	0.440	0.465	0.383	0.361	0.503	0.399	0.389	0.366	0.408
479																																																																																					0.448	0.520	0.529	0.442	0.467	0.384	0.361	0.504	0.400	0.390	0.367	0.409
480																																																																																					0.450	0.522	0.531	0.443	0.468	0.385	0.362	0.505	0.401	0.391	0.368	0.411
481																																																																																					0.452	0.524	0.533	0.445	0.470	0.387	0.364	0.507	0.403	0.393	0.370	0.413
482																																																																																					0.454	0.527	0.536	0.447	0.472	0.388	0.365	0.509	0.405	0.395	0.372	0.415
483																																																																																					0.457	0.529	0.539	0.449	0.473	0.390	0.366	0.511	0.406	0.396	0.374	0.416
484																																																																																					0.459	0.531	0.541	0.451	0.475	0.391	0.367	0.513	0.407	0.398	0.375	0.418
485																																																																																					0.461	0.534	0.543	0.453	0.477	0.392	0.369	0.515	0.409	0.399	0.377	0.420
486																																																																																					0.463	0.537	0.546	0.455	0.479	0.394	0.370	0.517	0.411	0.401	0.379	0.422
487																																																																																					0.466	0.540	0.550	0.458	0.481	0.396	0.372	0.520	0.413	0.403	0.381	0.424
488																																																																																					0.469	0.544	0.554	0.461	0.484	0.398	0.374	0.523	0.415	0.405	0.384	0.427
489																																																																																					0.473	0.548	0.558	0.464	0.487	0.401	0.376	0.526	0.417	0.407	0.386	0.429
490																																																																																					0.476	0.552	0.562	0.467	0.490	0.403	0.378	0.529	0.420	0.410	0.389	0.433
491																																																																																					0.481	0.558	0.568	0.471	0.494	0.406	0.381	0.533	0.423	0.414	0.392	0.436
492																																																																																					0.485	0.562	0.572	0.474	0.497	0.409	0.384	0.537	0.426	0.416	0.395	0.439
493																																																																																					0.489	0.566	0.577	0.477	0.500	0.411	0.386	0.540	0.429	0.419	0.398	0.442
494																																																																																					0.494	0.572	0.582	0.481	0.503	0.415	0.389	0.544	0.432	0.422	0.401	0.445
495																																																																																					0.499	0.578	0.589	0.486	0.508	0.418	0.392	0.549	0.436	0.426	0.405	0.450
496																																																																																					0.504	0.584	0.595	0.490	0.512	0.422	0.395	0.553	0.439	0.429	0.409	0.453
497																																																																																					0.511	0.591	0.602	0.495	0.516	0.426	0.398	0.559	0.443	0.433	0.413	0.458
498																																																																																					0.516	0.597	0.608	0.499	0.520	0.429	0.401	0.563	0.446	0.437	0.416	0.461
499																																																																																					0.520	0.602	0.614	0.502	0.524	0.432	0.404	0.567	0.449	0.440	0.419	0.465
500																																																																																					0.525	0.608	0.620	0.506	0.527	0.435	0.406	0.571	0.452	0.443	0.423	0.468
501																																																																																					0.531	0.614	0.626	0.511	0.531	0.439	0.409	0.575	0.456	0.446	0.427	0.472
502																																																																																					0.536	0.620	0.633	0.515	0.535	0.442	0.412	0.579	0.459	0.450	0.430	0.475
503																																																																																					0.542	0.626	0.639	0.519	0.539	0.445	0.415	0.583	0.462	0.453	0.434	0.479
504																																																																																					0.548	0.633	0.646	0.523	0.542	0.448	0.417	0.587	0.465	0.456	0.437	0.483
505																																																																																					0.552	0.638	0.651	0.526	0.545	0.451	0.419	0.590	0.468	0.458	0.440	0.485
506																																																																																					0.557	0.643	0.656	0.529	0.548	0.453	0.421	0.592	0.470	0.461	0.443	0.488
507																																																																																					0.561	0.648	0.661	0.532	0.550	0.455	0.423	0.595	0.472	0.463	0.446	0.491
508																																																																																					0.565	0.652	0.667	0.535	0.552	0.457	0.424	0.597	0.473	0.465	0.449	0.493
509																																																																																					0.569	0.656	0.671	0.538	0.553	0.458	0.425	0.598	0.475	0.467	0.451	0.495
510																																																																																					0.573	0.660	0.675	0.540	0.555	0.459	0.426	0.600	0.476	0.468	0.454	0.497
511																																																																																					0.576	0.663	0.678	0.542	0.555	0.460	0.426	0.600	0.477	0.469	0.455	0.499
512																																																																																					0.578	0.665	0.681	0.544	0.555	0.460	0.426	0.600	0.477	0.470	0.457	0.500
513																																																																																					0.580	0.667	0.683	0.545	0.555	0.460	0.426	0.600	0.477	0.470	0.458	0.501
514																																																																																					0.581	0.668	0.684	0.546	0.554	0.459	0.425	0.598	0.477	0.470	0.459	0.501
515																																																																																					0.582	0.668	0.685	0.546	0.553	0.459	0.424	0.597	0.476	0.470	0.459	0.501
516																																																																																					0.582	0.668	0.685	0.546	0.552	0.457	0.422	0.595	0.475	0.469	0.460	0.501
517																																																																																					0.582	0.667	0.684	0.546	0.549	0.455	0.421	0.593	0.474	0.468	0.460	0.501
518																																																																																					0.581	0.666	0.683	0.545	0.547	0.453	0.419	0.590	0.472	0.467	0.459	0.500
519																																																																																					0.580	0.664	0.682	0.545	0.545	0.451	0.416	0.587	0.470	0.466	0.459	0.499
520																																																																																					0.578	0.662	0.680	0.544	0.542	0.449	0.414	0.584	0.468	0.464	0.459	0.498
521																																																																																					0.576	0.659	0.677	0.542	0.539	0.446	0.411	0.580	0.466	0.462	0.458	0.496
522																																																																																					0.574	0.656	0.674	0.541	0.536	0.443	0.409	0.576	0.463	0.460	0.457	0.495
523																																																																																					0.571	0.652	0.670	0.539	0.531	0.439	0.405	0.571	0.460	0.458	0.455	0.492
524																																																																																					0.567	0.648	0.666	0.536	0.527	0.435	0.402	0.566	0.457	0.455	0.453	0.490
525																																																																																					0.564	0.643	0.662	0.534	0.523	0.431	0.398	0.561	0.453	0.452	0.451	0.487
526																																																																																					0.560	0.639	0.658	0.531	0.519	0.428	0.394	0.556	0.450	0.449	0.449	0.485
527																																																																																					0.556	0.633	0.653	0.528	0.514	0.423	0.390	0.551	0.446	0.446	0.447	0.482
528																																																																																					0.552	0.629	0.648	0.525	0.509	0.419	0.387	0.545	0.443	0.442	0.445	0.479
529																																																																																					0.549	0.625	0.644	0.523	0.505	0.416	0.384	0.541	0.440	0.440	0.443	0.477
530																																																																																					0.545	0.620	0.640	0.520	0.501	0.413	0.380	0.537	0.437	0.437	0.440	0.474
531																																																																																					0.541	0.615	0.634	0.517	0.497	0.408	0.377	0.531	0.433	0.434	0.438	0.471
532																																																																																					0.536	0.608	0.628	0.512	0.491	0.403	0.372	0.524	0.428	0.429	0.434	0.467
533																																																																																					0.531	0.602	0.622	0.508	0.485	0.399	0.367	0.518	0.423	0.425	0.431	0.463
534																																																																																					0.527	0.597	0.617	0.505	0.480	0.394	0.363	0.512	0.420	0.421	0.427	0.460
535																																																																																					0.522	0.591	0.611	0.501	0.475	0.390	0.359	0.507	0.415	0.417	0.424	0.456
536																																																																																					0.517	0.585	0.606	0.496	0.469	0.385	0.355	0.500	0.411	0.413	0.420	0.452
537																																																																																					0.513	0.580	0.601	0.492	0.465	0.381	0.352	0.495	0.407	0.409	0.417	0.449
538																																																																																					0.508	0.574	0.595	0.488	0.459	0.376	0.347	0.489	0.402	0.405	0.413	0.444
539																																																																																					0.503	0.568	0.589	0.482	0.453	0.371	0.343	0.482	0.397	0.400	0.409	0.439
540																																																																																					0.499	0.562	0.583	0.477	0.447	0.366	0.338	0.475	0.392	0.395	0.404	0.435
541																																																																																					0.495	0.557	0.579	0.473	0.442	0.362	0.334	0.469	0.388	0.391	0.400	0.430
542																																																																																					0.491	0.553	0.575	0.468	0.437	0.358	0.331	0.464	0.384	0.387	0.397	0.427
543																																																																																					0.488	0.549	0.571	0.464	0.432	0.354	0.327	0.459	0.380	0.383	0.393	0.423
544																																																																																					0.484	0.544	0.566	0.459	0.427	0.350	0.323	0.453	0.375	0.379	0.389	0.418
545																																																																																					0.480	0.539	0.562	0.453	0.421	0.345	0.319	0.446	0.370	0.374	0.384	0.413
546																																																																																					0.477	0.534	0.557	0.448	0.415	0.341	0.315	0.440	0.365	0.369	0.379	0.408
547																																																																																					0.474	0.530	0.553	0.442	0.410	0.337	0.311	0.434	0.360	0.364	0.374	0.403
548																																																																																					0.470	0.526	0.550	0.437	0.405	0.333	0.307	0.428	0.355	0.359	0.370	0.398
549																																																																																					0.468	0.523	0.547	0.433	0.400	0.330	0.304	0.424	0.352	0.355	0.366	0.394
550																																																																																					0.466	0.519	0.544	0.427	0.395	0.326	0.300	0.417	0.347	0.350	0.361	0.389
551																																																																																					0.463	0.516	0.541	0.421	0.389	0.322	0.296	0.412	0.342	0.345	0.356	0.383
552																																																																																					0.461	0.512	0.538	0.415	0.384	0.318	0.293	0.406	0.337	0.340	0.350	0.378
553																																																																																					0.459	0.510	0.536	0.410	0.379	0.315	0.290	0.401	0.333	0.336	0.345	0.373
554																																																																																					0.457	0.507	0.534	0.404	0.373	0.311	0.286	0.395	0.328	0.331	0.341	0.368
555																																																																																					0.456	0.505	0.532	0.399	0.369	0.308	0.283	0.390	0.324	0.327	0.336	0.363
556																																																																																					0.454	0.503	0.531	0.392	0.364	0.305	0.280	0.384	0.319	0.322	0.330	0.357
557																																																																																					0.454	0.501	0.530	0.387	0.359	0.302	0.277	0.379	0.315	0.317	0.325	0.352
558																																																																																					0.453	0.499	0.529	0.381	0.354	0.298	0.273	0.374	0.310	0.312	0.320	0.346
559																																																																																					0.452	0.498	0.528	0.375	0.349	0.295	0.270	0.369	0.306	0.307	0.314	0.341
560																																																																																					0.452	0.497	0.528	0.369	0.344	0.292	0.267	0.363	0.301	0.302	0.309	0.335
561																																																																																					0.452	0.497	0.528	0.364	0.340	0.290	0.265	0.359	0.297	0.298	0.304	0.330
562																																																																																					0.453	0.497	0.528	0.358	0.336	0.288	0.262	0.355	0.294	0.294	0.300	0.326
563																																																																																					0.453	0.496	0.529	0.354	0.332	0.285	0.260	0.351	0.290	0.290	0.295	0.321
564																																																																																					0.454	0.497	0.530	0.348	0.328	0.283	0.258	0.347	0.286	0.286	0.291	0.316
565																																																																																					0.455	0.497	0.531	0.342	0.324	0.281	0.255	0.342	0.282	0.281	0.285	0.311
566																																																																																					0.457	0.498	0.533	0.337	0.320	0.279	0.253	0.338	0.279	0.278	0.281	0.306
567																																																																																					0.458	0.499	0.535	0.332	0.316	0.277	0.251	0.334	0.275	0.274	0.276	0.301
568																																																																																					0.460	0.500	0.537	0.327	0.313	0.275	0.249	0.331	0.272	0.270	0.272	0.296
569																																																																																					0.462	0.502	0.539	0.322	0.309	0.273	0.246	0.327	0.268	0.266	0.267	0.292
570																																																																																					0.465	0.504	0.542	0.317	0.305	0.272	0.245	0.323	0.265	0.262	0.263	0.287
571																																																																																					0.468	0.507	0.545	0.312	0.301	0.270	0.243	0.320	0.261	0.258	0.258	0.282
572																																																																																					0.471	0.509	0.549	0.307	0.298	0.269	0.241	0.316	0.258	0.254	0.254	0.278
573																																																																																					0.474	0.512	0.553	0.303	0.295	0.268	0.239	0.313	0.255	0.251	0.250	0.274
574																																																																																					0.477	0.515	0.556	0.299	0.293	0.267	0.238	0.311	0.253	0.248	0.246	0.270
575																																																																																					0.480	0.518	0.560	0.295	0.290	0.265	0.237	0.308	0.250	0.245	0.242	0.266
576																																																																																					0.484	0.522	0.565	0.291	0.287	0.265	0.235	0.305	0.247	0.242	0.239	0.262
577																																																																																					0.488	0.526	0.570	0.286	0.284	0.264	0.234	0.302	0.244	0.239	0.235	0.258
578																																																																																					0.493	0.530	0.575	0.282	0.282	0.263	0.233	0.300	0.241	0.235	0.231	0.254
579																																																																																					0.498	0.535	0.581	0.278	0.279	0.262	0.232	0.297	0.239	0.233	0.228	0.250
580																																																																																					0.504	0.540	0.587	0.274	0.276	0.262	0.230	0.295	0.236	0.230	0.224	0.246
581																																																																																					0.509	0.546	0.594	0.270	0.274	0.261	0.229	0.292	0.234	0.227	0.221	0.242
582																																																																																					0.515	0.551	0.600	0.267	0.272	0.261	0.229	0.290	0.232	0.224	0.217	0.239
583																																																																																					0.521	0.557	0.608	0.263	0.270	0.261	0.228	0.288	0.230	0.221	0.214	0.236
584																																																																																					0.527	0.564	0.615	0.259	0.267	0.260	0.227	0.286	0.227	0.219	0.211	0.232
585																																																																																					0.534	0.571	0.623	0.256	0.266	0.261	0.226	0.284	0.225	0.216	0.207	0.229
586																																																																																					0.542	0.579	0.632	0.252	0.263	0.261	0.226	0.282	0.223	0.213	0.204	0.225
587																																																																																					0.549	0.587	0.641	0.249	0.262	0.261	0.225	0.281	0.221	0.211	0.202	0.222
588																																																																																					0.557	0.594	0.649	0.246	0.260	0.261	0.225	0.279	0.220	0.209	0.199	0.219
589																																																																																					0.563	0.601	0.657	0.243	0.259	0.262	0.224	0.278	0.218	0.207	0.197	0.217
590																																																																																					0.571	0.609	0.666	0.241	0.257	0.262	0.224	0.277	0.216	0.205	0.194	0.214
591																																																																																					0.579	0.618	0.676	0.238	0.256	0.263	0.224	0.275	0.215	0.203	0.192	0.212
592																																																																																					0.588	0.627	0.686	0.235	0.254	0.264	0.224	0.274	0.213	0.201	0.189	0.209
593																																																																																					0.596	0.636	0.696	0.233	0.253	0.265	0.224	0.273	0.212	0.200	0.187	0.207
594																																																																																					0.605	0.646	0.707	0.230	0.252	0.266	0.224	0.272	0.210	0.198	0.185	0.204
595																																																																																					0.615	0.656	0.718	0.228	0.251	0.267	0.224	0.271	0.209	0.196	0.183	0.202
596																																																																																					0.624	0.666	0.729	0.225	0.250	0.268	0.224	0.271	0.208	0.195	0.181	0.200
597																																																																																					0.633	0.676	0.740	0.223	0.249	0.269	0.224	0.270	0.207	0.193	0.179	0.198
598																																																																																					0.642	0.686	0.750	0.221	0.248	0.271	0.224	0.269	0.206	0.192	0.177	0.196
599																																																																																					0.652	0.697	0.762	0.219	0.247	0.272	0.225	0.269	0.205	0.191	0.175	0.194
600																																																																																					0.663	0.710	0.776	0.217	0.247	0.274	0.225	0.268	0.204	0.189	0.173	0.192
601																																																																																					0.675	0.723	0.790	0.215	0.246	0.276	0.226	0.268	0.203	0.188	0.171	0.190
602																																																																																					0.687	0.737	0.804	0.213	0.245	0.278	0.227	0.268	0.202	0.186	0.169	0.188
603																																																																																					0.697	0.749	0.817	0.211	0.245	0.280	0.227	0.268	0.201	0.185	0.168	0.186
604																																																																																					0.708	0.761	0.830	0.210	0.244	0.282	0.228	0.267	0.201	0.184	0.166	0.184
605																																																																																					0.718	0.773	0.842	0.208	0.244	0.284	0.229	0.268	0.200	0.183	0.165	0.183
606																																																																																					0.727	0.783	0.853	0.207	0.244	0.286	0.230	0.268	0.200	0.182	0.164	0.182
607																																																																																					0.737	0.796	0.866	0.205	0.244	0.289	0.231	0.268	0.199	0.181	0.163	0.180
608																																																																																					0.750	0.811	0.881	0.204	0.244	0.292	0.232	0.268	0.199	0.181	0.161	0.179
609																																																																																					0.761	0.825	0.895	0.202	0.243	0.294	0.233	0.268	0.198	0.180	0.160	0.177
610																																																																																					0.773	0.839	0.909	0.201	0.243	0.297	0.234	0.268	0.198	0.179	0.159	0.176
611																																																																																					0.783	0.851	0.922	0.200	0.244	0.300	0.235	0.269	0.197	0.178	0.158	0.175
612																																																																																					0.795	0.865	0.936	0.199	0.244	0.304	0.237	0.270	0.197	0.178	0.157	0.174
613																																																																																					0.806	0.880	0.950	0.198	0.244	0.307	0.238	0.270	0.197	0.177	0.156	0.172
614																																																																																					0.818	0.895	0.965	0.196	0.244	0.311	0.240	0.271	0.196	0.176	0.154	0.171
615																																																																																					0.830	0.910	0.980	0.195	0.244	0.315	0.241	0.272	0.196	0.176	0.153	0.170
616																																																																																					0.842	0.925	0.995	0.194	0.245	0.319	0.243	0.273	0.196	0.175	0.152	0.169
617																																																																																					0.853	0.940	1.009	0.193	0.245	0.323	0.245	0.274	0.196	0.175	0.151	0.168
618																																																																																					0.865	0.955	1.023	0.192	0.246	0.327	0.247	0.275	0.196	0.174	0.151	0.167
619																																																																																					0.875	0.969	1.036	0.191	0.246	0.331	0.249	0.276	0.196	0.174	0.150	0.166
620																																																																																					0.887	0.986	1.051	0.190	0.247	0.337	0.251	0.277	0.196	0.173	0.149	0.165
621																																																																																					0.898	1.001	1.066	0.189	0.248	0.342	0.254	0.279	0.196	0.173	0.148	0.164
622																																																																																					0.909	1.016	1.079	0.188	0.249	0.347	0.256	0.280	0.197	0.173	0.148	0.163
623																																																																																					0.919	1.031	1.093	0.188	0.250	0.352	0.259	0.282	0.197	0.172	0.147	0.163
624																																																																																					0.929	1.046	1.105	0.187	0.251	0.358	0.262	0.283	0.197	0.172	0.146	0.162
625																																																																																					0.939	1.060	1.118	0.186	0.252	0.364	0.265	0.285	0.198	0.172	0.146	0.161
626																																																																																					0.947	1.072	1.128	0.186	0.253	0.369	0.267	0.287	0.198	0.172	0.145	0.160
627																																																																																					0.957	1.086	1.140	0.185	0.254	0.375	0.270	0.289	0.198	0.172	0.144	0.160
628																																																																																					0.965	1.099	1.151	0.184	0.255	0.381	0.273	0.291	0.199	0.172	0.144	0.159
629																																																																																					0.973	1.112	1.162	0.184	0.257	0.388	0.276	0.293	0.199	0.172	0.143	0.159
630																																																																																					0.981	1.125	1.173	0.183	0.258	0.395	0.280	0.296	0.200	0.172	0.143	0.158
631																																																																																					0.989	1.137	1.183	0.183	0.260	0.402	0.283	0.298	0.201	0.172	0.143	0.158
632																																																																																					0.997	1.150	1.192	0.182	0.261	0.409	0.287	0.301	0.201	0.172	0.142	0.157
633																																																																																					1.003	1.162	1.202	0.182	0.263	0.417	0.291	0.303	0.202	0.172	0.142	0.157
634																																																																																					1.010	1.173	1.210	0.182	0.265	0.424	0.295	0.306	0.203	0.172	0.142	0.156
635																																																																																					1.016	1.185	1.219	0.181	0.267	0.433	0.299	0.309	0.204	0.173	0.141	0.156
636																																																																																					1.022	1.195	1.226	0.181	0.269	0.441	0.304	0.312	0.205	0.173	0.141	0.155
637																																																																																					1.026	1.205	1.233	0.181	0.271	0.449	0.308	0.316	0.206	0.173	0.141	0.155
638																																																																																					1.031	1.215	1.240	0.181	0.273	0.458	0.313	0.319	0.207	0.173	0.141	0.155
639																																																																																					1.036	1.225	1.246	0.181	0.276	0.468	0.318	0.323	0.208	0.174	0.141	0.154
640																																																																																					1.040	1.234	1.252	0.181	0.279	0.477	0.323	0.327	0.210	0.174	0.140	0.154
641																																																																																					1.043	1.242	1.257	0.181	0.281	0.487	0.328	0.331	0.211	0.175	0.140	0.154
642																																																																																					1.046	1.250	1.261	0.181	0.284	0.497	0.334	0.335	0.212	0.175	0.140	0.154
643																																																																																					1.049	1.258	1.265	0.180	0.287	0.507	0.340	0.339	0.214	0.176	0.140	0.153
644																																																																																					1.051	1.265	1.269	0.181	0.290	0.518	0.346	0.344	0.215	0.177	0.140	0.153
645																																																																																					1.052	1.271	1.272	0.181	0.293	0.529	0.352	0.348	0.217	0.177	0.140	0.153
646																																																																																					1.053	1.277	1.274	0.181	0.297	0.540	0.358	0.353	0.219	0.178	0.140	0.153
647																																																																																					1.054	1.283	1.276	0.181	0.300	0.552	0.365	0.359	0.221	0.179	0.140	0.153
648																																																																																					1.054	1.288	1.277	0.181	0.304	0.564	0.372	0.364	0.223	0.180	0.141	0.153
649																																																																																					1.054	1.292	1.278	0.181	0.308	0.576	0.380	0.370	0.225	0.181	0.141	0.153
650																																																																																					1.054	1.296	1.278	0.182	0.312	0.588	0.387	0.376	0.227	0.182	0.141	0.153
651																																																																																					1.052	1.299	1.277	0.182	0.316	0.601	0.394	0.381	0.229	0.182	0.141	0.153
652																																																																																					1.051	1.302	1.277	0.183	0.320	0.612	0.401	0.387	0.231	0.183	0.141	0.153
653																																																																																					1.049	1.304	1.275	0.183	0.324	0.625	0.409	0.394	0.233	0.184	0.141	0.153
654																																																																																					1.047	1.306	1.274	0.183	0.329	0.638	0.417	0.400	0.235	0.186	0.141	0.153
655																																																																																					1.045	1.306	1.272	0.184	0.333	0.651	0.425	0.406	0.238	0.187	0.142	0.154
656																																																																																					1.041	1.307	1.268	0.185	0.338	0.664	0.434	0.413	0.240	0.188	0.142	0.154
657																																																																																					1.038	1.307	1.265	0.185	0.344	0.679	0.443	0.421	0.243	0.189	0.142	0.154
658																																																																																					1.034	1.307	1.262	0.186	0.349	0.693	0.453	0.429	0.246	0.191	0.143	0.154
659																																																																																					1.029	1.306	1.257	0.187	0.355	0.707	0.462	0.437	0.249	0.192	0.143	0.154
660																																																																																					1.026	1.304	1.253	0.187	0.360	0.721	0.471	0.445	0.252	0.194	0.144	0.155
661																																																																																					1.020	1.302	1.247	0.188	0.366	0.736	0.482	0.453	0.255	0.195	0.144	0.155
662																																																																																					1.014	1.300	1.241	0.189	0.373	0.751	0.492	0.463	0.259	0.197	0.145	0.156
663																																																																																					1.008	1.296	1.234	0.190	0.380	0.766	0.503	0.472	0.263	0.199	0.146	0.156
664																																																																																					1.002	1.292	1.228	0.191	0.386	0.782	0.514	0.481	0.266	0.201	0.146	0.157
665																																																																																					0.996	1.288	1.221	0.192	0.393	0.796	0.525	0.491	0.270	0.202	0.147	0.157
666																																																																																					0.989	1.283	1.213	0.193	0.400	0.810	0.535	0.500	0.273	0.204	0.147	0.157
667																																																																																					0.982	1.278	1.205	0.194	0.408	0.826	0.547	0.511	0.278	0.206	0.148	0.158
668																																																																																					0.974	1.272	1.196	0.196	0.416	0.842	0.560	0.522	0.282	0.209	0.149	0.159
669																																																																																					0.967	1.265	1.187	0.197	0.424	0.858	0.572	0.533	0.286	0.211	0.150	0.159
670																																																																																					0.959	1.258	1.177	0.198	0.432	0.873	0.584	0.545	0.291	0.213	0.151	0.160
671																																																																																					0.950	1.250	1.167	0.199	0.440	0.888	0.596	0.556	0.296	0.216	0.152	0.161
672																																																																																					0.942	1.243	1.158	0.201	0.449	0.902	0.608	0.568	0.300	0.218	0.153	0.161
673																																																																																					0.933	1.235	1.147	0.203	0.458	0.917	0.621	0.581	0.306	0.221	0.154	0.162
674																																																																																					0.923	1.225	1.135	0.204	0.468	0.933	0.635	0.594	0.311	0.224	0.155	0.163
675																																																																																					0.914	1.216	1.124	0.206	0.477	0.947	0.648	0.607	0.316	0.226	0.156	0.164
676																																																																																					0.905	1.206	1.112	0.208	0.488	0.964	0.662	0.621	0.323	0.230	0.157	0.165
677																																																																																					0.895	1.196	1.100	0.210	0.498	0.978	0.675	0.634	0.328	0.232	0.158	0.166
678																																																																																					0.885	1.186	1.089	0.212	0.508	0.992	0.688	0.649	0.334	0.236	0.160	0.167
679																																																																																					0.875	1.175	1.076	0.214	0.519	1.006	0.702	0.663	0.340	0.239	0.161	0.168
680																																																																																					0.864	1.163	1.062	0.216	0.531	1.021	0.717	0.678	0.347	0.242	0.163	0.169
681																																																																																					0.854	1.152	1.050	0.218	0.542	1.035	0.731	0.694	0.354	0.246	0.164	0.170
682																																																																																					0.844	1.140	1.037	0.221	0.554	1.048	0.745	0.710	0.361	0.250	0.165	0.171
683																																																																																					0.834	1.129	1.025	0.223	0.566	1.061	0.758	0.725	0.367	0.254	0.167	0.172
684																																																																																					0.823	1.117	1.012	0.225	0.578	1.073	0.772	0.741	0.375	0.258	0.169	0.174
685																																																																																					0.812	1.104	0.998	0.228	0.591	1.086	0.787	0.758	0.383	0.262	0.171	0.175
686																																																																																					0.800	1.091	0.984	0.231	0.605	1.099	0.802	0.777	0.391	0.267	0.173	0.177
687																																																																																					0.789	1.077	0.969	0.234	0.619	1.111	0.818	0.795	0.400	0.271	0.175	0.178
688																																																																																					0.778	1.064	0.955	0.237	0.633	1.123	0.832	0.814	0.408	0.276	0.177	0.180
689																																																																																					0.768	1.051	0.942	0.240	0.648	1.135	0.847	0.832	0.417	0.281	0.179	0.182
690																																																																																					0.758	1.039	0.929	0.244	0.661	1.145	0.861	0.850	0.426	0.286	0.181	0.183
691																																																																																					0.747	1.026	0.916	0.247	0.675	1.155	0.874	0.867	0.434	0.291	0.183	0.185
692																																																																																					0.737	1.013	0.903	0.250	0.690	1.164	0.888	0.886	0.444	0.296	0.185	0.187
693																																																																																					0.726	0.999	0.889	0.254	0.706	1.174	0.903	0.907	0.454	0.302	0.188	0.189
694																																																																																					0.716	0.986	0.876	0.258	0.722	1.183	0.916	0.926	0.463	0.308	0.191	0.191
695																																																																																					0.705	0.973	0.864	0.262	0.737	1.191	0.930	0.945	0.473	0.314	0.193	0.193
696																																																																																					0.695	0.959	0.850	0.266	0.754	1.200	0.944	0.966	0.484	0.320	0.196	0.196
697																																																																																					0.683	0.946	0.836	0.271	0.772	1.209	0.960	0.989	0.496	0.327	0.199	0.198
698																																																																																					0.674	0.934	0.824	0.275	0.787	1.215	0.972	1.008	0.505	0.333	0.202	0.200
699																																																																																					0.665	0.921	0.812	0.279	0.803	1.222	0.985	1.027	0.516	0.340	0.205	0.203
700																																																																																					0.655	0.909	0.801	0.283	0.818	1.228	0.997	1.046	0.526	0.346	0.208	0.205
701																																																																																					0.646	0.898	0.789	0.288	0.836	1.234	1.009	1.067	0.538	0.353	0.211	0.208
702																																																																																					0.636	0.884	0.777	0.293	0.853	1.239	1.022	1.088	0.549	0.360	0.215	0.210
703																																																																																					0.626	0.871	0.764	0.299	0.872	1.245	1.036	1.111	0.562	0.368	0.218	0.214
704																																																																																					0.617	0.858	0.753	0.304	0.890	1.250	1.048	1.132	0.574	0.376	0.222	0.217
705																																																																																					0.608	0.846	0.741	0.310	0.907	1.254	1.060	1.153	0.586	0.384	0.226	0.220
706																																																																																					0.599	0.834	0.730	0.316	0.925	1.258	1.072	1.174	0.599	0.392	0.230	0.223
707																																																																																					0.590	0.823	0.719	0.321	0.944	1.262	1.084	1.196	0.611	0.400	0.233	0.226
708																																																																																					0.582	0.811	0.708	0.328	0.962	1.264	1.095	1.217	0.625	0.409	0.238	0.230
709																																																																																					0.572	0.798	0.697	0.334	0.981	1.267	1.107	1.238	0.638	0.418	0.242	0.233
710																																																																																					0.564	0.787	0.687	0.340	0.999	1.270	1.117	1.259	0.651	0.427	0.247	0.237
711																																																																																					0.556	0.776	0.676	0.347	1.018	1.272	1.128	1.280	0.665	0.436	0.251	0.241
712																																																																																					0.548	0.765	0.666	0.353	1.035	1.273	1.138	1.301	0.678	0.445	0.256	0.244
713																																																																																					0.540	0.754	0.656	0.360	1.055	1.274	1.148	1.322	0.692	0.455	0.261	0.248
714																																																																																					0.532	0.742	0.646	0.368	1.075	1.275	1.159	1.344	0.707	0.465	0.266	0.253
715																																																																																					0.523	0.731	0.635	0.375	1.094	1.275	1.169	1.366	0.721	0.476	0.271	0.257
716																																																																																					0.516	0.720	0.626	0.383	1.112	1.275	1.178	1.386	0.735	0.485	0.276	0.261
717																																																																																					0.508	0.710	0.616	0.390	1.131	1.274	1.187	1.407	0.749	0.496	0.282	0.266
718																																																																																					0.500	0.699	0.607	0.398	1.149	1.273	1.195	1.426	0.763	0.506	0.287	0.270
719																																																																																					0.493	0.689	0.597	0.406	1.168	1.271	1.203	1.446	0.778	0.517	0.293	0.275
720																																																																																					0.486	0.679	0.589	0.414	1.186	1.269	1.210	1.465	0.792	0.527	0.298	0.280
721																																																																																					0.478	0.669	0.579	0.423	1.205	1.267	1.218	1.486	0.807	0.539	0.305	0.285
722																																																																																					0.471	0.658	0.570	0.432	1.225	1.264	1.225	1.506	0.823	0.551	0.311	0.291
723																																																																																					0.463	0.648	0.560	0.441	1.244	1.261	1.232	1.526	0.838	0.563	0.318	0.296
724																																																																																					0.457	0.638	0.552	0.450	1.262	1.257	1.238	1.544	0.853	0.574	0.324	0.302
725																																																																																					0.449	0.627	0.543	0.459	1.281	1.252	1.244	1.563	0.869	0.587	0.331	0.308
726																																																																																					0.443	0.618	0.534	0.469	1.298	1.248	1.249	1.580	0.883	0.598	0.337	0.314
727																																																																																					0.436	0.609	0.526	0.478	1.316	1.243	1.254	1.599	0.899	0.611	0.344	0.320
728																																																																																					0.430	0.599	0.517	0.488	1.334	1.238	1.258	1.616	0.914	0.623	0.352	0.326
729																																																																																					0.423	0.590	0.510	0.499	1.351	1.232	1.262	1.634	0.929	0.636	0.359	0.333
730																																																																																					0.417	0.582	0.502	0.509	1.368	1.226	1.266	1.650	0.944	0.648	0.366	0.340
731																																																																																					0.411	0.573	0.494	0.520	1.385	1.220	1.268	1.666	0.959	0.661	0.374	0.346
732																																																																																					0.405	0.565	0.487	0.530	1.401	1.213	1.271	1.682	0.974	0.674	0.382	0.354
733																																																																																					0.399	0.556	0.480	0.541	1.417	1.206	1.273	1.697	0.989	0.687	0.390	0.361
734																																																																																					0.394	0.548	0.473	0.551	1.432	1.200	1.275	1.710	1.003	0.700	0.397	0.368
735																																																																																					0.388	0.540	0.466	0.563	1.448	1.192	1.276	1.725	1.017	0.713	0.406	0.375
736																																																																																					0.382	0.531	0.457	0.576	1.465	1.183	1.276	1.740	1.034	0.728	0.415	0.384
737																																																																																					0.376	0.522	0.450	0.588	1.481	1.175	1.277	1.753	1.049	0.742	0.424	0.392
738																																																																																					0.371	0.514	0.443	0.599	1.494	1.167	1.276	1.765	1.063	0.754	0.432	0.400
739																																																																																					0.365	0.507	0.436	0.611	1.508	1.158	1.276	1.778	1.077	0.768	0.441	0.408
740																																																																																					0.360	0.499	0.430	0.623	1.521	1.149	1.275	1.789	1.091	0.782	0.450	0.417
741																																																																																					0.355	0.491	0.423	0.635	1.534	1.140	1.273	1.799	1.104	0.795	0.458	0.425
742																																																																																					0.350	0.484	0.417	0.647	1.547	1.131	1.271	1.809	1.118	0.808	0.467	0.434
743																																																																																					0.344	0.476	0.410	0.659	1.559	1.122	1.269	1.819	1.131	0.822	0.476	0.443
744																																																																																					0.340	0.469	0.404	0.671	1.571	1.112	1.266	1.828	1.144	0.836	0.486	0.452
745																																																																																					0.335	0.462	0.398	0.684	1.582	1.102	1.263	1.837	1.157	0.849	0.495	0.461
746																																																																																					0.330	0.455	0.392	0.697	1.593	1.092	1.260	1.845	1.169	0.863	0.505	0.470
747																																																																																					0.325	0.448	0.386	0.710	1.604	1.082	1.256	1.853	1.182	0.877	0.515	0.481
748																																																																																					0.320	0.441	0.380	0.723	1.614	1.072	1.252	1.859	1.194	0.891	0.525	0.490
749																																																																																					0.316	0.434	0.374	0.736	1.624	1.061	1.248	1.867	1.207	0.904	0.535	0.501
750																																																																																					0.311	0.428	0.369	0.749	1.634	1.052	1.243	1.872	1.218	0.918	0.545	0.510
751																																																																																					0.307	0.422	0.363	0.762	1.642	1.042	1.239	1.877	1.229	0.931	0.554	0.520
752																																																																																					0.303	0.416	0.358	0.774	1.650	1.033	1.234	1.882	1.239	0.943	0.564	0.530
753																																																																																					0.299	0.410	0.353	0.786	1.657	1.023	1.229	1.886	1.250	0.956	0.574	0.540
754																																																																																					0.295	0.404	0.348	0.800	1.665	1.013	1.224	1.890	1.260	0.969	0.584	0.551
755																																																																																					0.291	0.398	0.343	0.813	1.672	1.002	1.218	1.894	1.271	0.982	0.594	0.562
756																																																																																					0.287	0.392	0.338	0.826	1.679	0.992	1.212	1.897	1.281	0.996	0.605	0.573
757																																																																																					0.283	0.386	0.333	0.840	1.686	0.982	1.206	1.899	1.291	1.008	0.615	0.584
758																																																																																					0.279	0.381	0.329	0.853	1.691	0.972	1.200	1.902	1.301	1.021	0.625	0.596
759																																																																																					0.275	0.375	0.324	0.867	1.697	0.962	1.193	1.903	1.310	1.034	0.636	0.608
760																																																																																					0.271	0.370	0.319	0.880	1.702	0.951	1.187	1.905	1.319	1.047	0.647	0.619
761																																																																																					0.268	0.364	0.315	0.895	1.707	0.941	1.179	1.905	1.328	1.060	0.659	0.632
762																																																																																					0.263	0.358	0.309	0.912	1.712	0.928	1.171	1.905	1.339	1.076	0.672	0.647
763																																																																																					0.260	0.353	0.305	0.925	1.716	0.918	1.164	1.905	1.347	1.088	0.682	0.659
764																																																																																					0.257	0.348	0.301	0.936	1.719	0.910	1.158	1.905	1.353	1.098	0.691	0.669
765																																																																																					0.254	0.345	0.298	0.946	1.721	0.902	1.153	1.904	1.359	1.107	0.700	0.679
766																																																																																					0.251	0.340	0.294	0.958	1.723	0.894	1.146	1.902	1.365	1.117	0.709	0.690
767																																																																																					0.248	0.335	0.290	0.972	1.726	0.884	1.139	1.900	1.373	1.129	0.720	0.703
768																																																																																					0.244	0.330	0.286	0.986	1.727	0.873	1.130	1.897	1.379	1.141	0.732	0.716
769																																																																																					0.241	0.326	0.282	0.999	1.728	0.863	1.122	1.894	1.386	1.153	0.743	0.729
770																																																																																					0.238	0.321	0.278	1.013	1.730	0.853	1.114	1.891	1.392	1.164	0.754	0.742
771																																																																																					0.235	0.317	0.275	1.025	1.730	0.844	1.107	1.886	1.397	1.174	0.764	0.754
772																																																																																					0.232	0.312	0.271	1.037	1.730	0.834	1.099	1.884	1.402	1.185	0.774	0.768
773																																																																																					0.229	0.308	0.267	1.051	1.730	0.824	1.090	1.879	1.407	1.195	0.786	0.781
774																																																																																					0.226	0.304	0.264	1.063	1.730	0.815	1.082	1.874	1.412	1.205	0.796	0.794
775																																																																																					0.224	0.300	0.260	1.077	1.728	0.805	1.073	1.868	1.416	1.215	0.807	0.808
776																																																																																					0.221	0.295	0.257	1.088	1.727	0.795	1.065	1.862	1.420	1.225	0.817	0.821
777																																																																																					0.218	0.292	0.253	1.100	1.726	0.787	1.057	1.858	1.423	1.233	0.827	0.833
778																																																																																					0.215	0.288	0.250	1.113	1.723	0.777	1.048	1.851	1.426	1.243	0.838	0.847
779																																																																																					0.212	0.284	0.247	1.125	1.721	0.768	1.040	1.843	1.429	1.252	0.848	0.861
780																																																																																					0.210	0.280	0.243	1.138	1.717	0.757	1.030	1.836	1.432	1.262	0.860	0.876
781																																																																																					0.207	0.276	0.240	1.151	1.714	0.748	1.021	1.828	1.435	1.270	0.870	0.889
782																																																																																					0.205	0.272	0.237	1.162	1.711	0.739	1.012	1.821	1.436	1.278	0.879	0.902
783																																																																																					0.202	0.269	0.234	1.173	1.707	0.730	1.003	1.812	1.438	1.286	0.889	0.916
784																																																																																					0.200	0.265	0.231	1.185	1.702	0.721	0.994	1.803	1.439	1.294	0.900	0.930
785																																																																																					0.198	0.262	0.228	1.197	1.697	0.711	0.985	1.794	1.440	1.301	0.910	0.944
786																																																																																					0.195	0.258	0.225	1.209	1.692	0.702	0.975	1.784	1.440	1.308	0.920	0.959
787																																																																																					0.193	0.254	0.222	1.220	1.686	0.692	0.965	1.774	1.440	1.315	0.930	0.973
788																																																																																					0.190	0.251	0.219	1.230	1.679	0.683	0.956	1.765	1.440	1.322	0.940	0.987
789																																																																																					0.188	0.248	0.216	1.240	1.674	0.675	0.947	1.755	1.440	1.327	0.949	1.000
790																																																																																					0.186	0.245	0.214	1.250	1.668	0.667	0.938	1.745	1.439	1.333	0.958	1.013
791																																																																																					0.184	0.242	0.211	1.260	1.661	0.658	0.929	1.734	1.438	1.339	0.966	1.026
792																																																																																					0.182	0.238	0.208	1.270	1.653	0.650	0.919	1.723	1.437	1.343	0.975	1.040
793																																																																																					0.180	0.236	0.206	1.280	1.647	0.642	0.911	1.712	1.435	1.349	0.984	1.053
794																																																																																					0.177	0.232	0.203	1.291	1.638	0.632	0.900	1.699	1.432	1.354	0.994	1.068
795																																																																																					0.175	0.229	0.200	1.300	1.629	0.623	0.889	1.686	1.429	1.358	1.002	1.082
796																																																																																					0.174	0.227	0.198	1.308	1.621	0.616	0.881	1.676	1.427	1.362	1.010	1.094
797																																																																																					0.172	0.224	0.196	1.317	1.613	0.608	0.872	1.664	1.424	1.366	1.018	1.107
798																																																																																					0.170	0.221	0.193	1.325	1.605	0.600	0.863	1.652	1.421	1.369	1.026	1.120
799																																																																																					0.168	0.218	0.191	1.333	1.596	0.592	0.853	1.640	1.417	1.372	1.034	1.133
800																																																																																					0.166	0.216	0.189	1.341	1.586	0.584	0.844	1.627	1.413	1.375	1.041	1.145
801																																																																																					0.164	0.213	0.186	1.350	1.576	0.576	0.834	1.613	1.409	1.377	1.049	1.159
802																																																																																					0.163	0.211	0.185	1.357	1.567	0.569	0.825	1.602	1.405	1.379	1.056	1.171
803																																																																																					0.161	0.208	0.182	1.363	1.557	0.561	0.816	1.589	1.400	1.381	1.062	1.183
804																																																																																					0.159	0.205	0.180	1.370	1.548	0.554	0.807	1.576	1.396	1.382	1.069	1.195
805																																																																																					0.158	0.203	0.178	1.377	1.538	0.547	0.798	1.564	1.391	1.384	1.076	1.207
806																																																																																					0.156	0.201	0.176	1.382	1.528	0.540	0.790	1.552	1.386	1.384	1.081	1.217
807																																																																																					0.154	0.199	0.174	1.390	1.516	0.532	0.779	1.537	1.380	1.385	1.088	1.231
808																																																																																					0.153	0.196	0.173	1.395	1.507	0.526	0.772	1.525	1.375	1.385	1.094	1.241
809																																																																																					0.151	0.194	0.171	1.400	1.496	0.519	0.763	1.511	1.369	1.385	1.099	1.252
810																																																																																					0.150	0.192	0.169	1.405	1.486	0.512	0.754	1.499	1.363	1.385	1.105	1.263
811																																																																																					0.149	0.190	0.167	1.411	1.475	0.505	0.745	1.485	1.357	1.385	1.111	1.274
812																																																																																					0.147	0.188	0.166	1.415	1.464	0.499	0.737	1.472	1.350	1.384	1.115	1.285
813																																																																																					0.146	0.185	0.164	1.420	1.453	0.492	0.728	1.458	1.343	1.383	1.120	1.296
814																																																																																					0.145	0.184	0.162	1.425	1.442	0.486	0.720	1.445	1.337	1.382	1.125	1.306
815																																																																																					0.143	0.182	0.161	1.429	1.430	0.479	0.711	1.431	1.330	1.381	1.129	1.317
816																																																																																					0.142	0.180	0.159	1.432	1.419	0.473	0.702	1.417	1.322	1.379	1.134	1.326
817																																																																																					0.141	0.178	0.158	1.436	1.408	0.467	0.695	1.405	1.316	1.377	1.138	1.335
818																																																																																					0.139	0.176	0.156	1.439	1.394	0.460	0.685	1.389	1.307	1.374	1.142	1.346
819																																																																																					0.138	0.174	0.154	1.442	1.382	0.453	0.676	1.373	1.299	1.372	1.146	1.357
820																																																																																					0.137	0.172	0.152	1.445	1.366	0.445	0.665	1.356	1.288	1.368	1.150	1.368
821																																																																																					0.136	0.170	0.150	1.448	1.352	0.438	0.655	1.339	1.278	1.364	1.153	1.379
822																																																																																					0.134	0.168	0.149	1.450	1.343	0.433	0.649	1.329	1.272	1.362	1.156	1.386
823																																																																																					0.134	0.167	0.148	1.452	1.336	0.430	0.644	1.321	1.268	1.360	1.158	1.391
824																																																																																					0.133	0.166	0.148	1.453	1.330	0.427	0.640	1.314	1.264	1.358	1.159	1.395
825																																																																																					0.133	0.166	0.147	1.454	1.322	0.424	0.635	1.305	1.259	1.356	1.161	1.401
826																																																																																					0.132	0.164	0.146	1.456	1.309	0.418	0.627	1.290	1.249	1.351	1.164	1.410
827																																																																																					0.131	0.163	0.145	1.456	1.294	0.411	0.618	1.274	1.239	1.346	1.166	1.419
828																																																																																					0.130	0.161	0.144	1.457	1.282	0.406	0.610	1.260	1.230	1.342	1.168	1.426
829																																																																																					0.129	0.160	0.143	1.458	1.274	0.403	0.605	1.251	1.225	1.339	1.169	1.431
830																																																																																					0.129	0.159	0.142	1.458	1.264	0.399	0.599	1.240	1.218	1.335	1.170	1.437
831																																																																																					0.128	0.158	0.141	1.458	1.252	0.393	0.592	1.226	1.208	1.329	1.171	1.444
832																																																																																					0.127	0.156	0.140	1.456	1.234	0.386	0.581	1.207	1.194	1.321	1.172	1.452
833																																																																																					0.126	0.155	0.139	1.456	1.220	0.380	0.572	1.191	1.184	1.315	1.173	1.458
834																																																																																					0.125	0.154	0.138	1.455	1.210	0.376	0.567	1.180	1.177	1.310	1.173	1.463
835																																																																																					0.125	0.153	0.138	1.454	1.202	0.373	0.562	1.172	1.171	1.306	1.173	1.467
836																																																																																					0.124	0.152	0.137	1.453	1.194	0.370	0.557	1.163	1.164	1.302	1.173	1.470
837																																																																																					0.123	0.151	0.136	1.452	1.181	0.365	0.550	1.149	1.155	1.296	1.173	1.475
838																																																																																					0.122	0.149	0.134	1.449	1.168	0.359	0.542	1.134	1.143	1.288	1.172	1.479
839																																																																																					0.121	0.148	0.133	1.446	1.154	0.355	0.534	1.119	1.133	1.280	1.171	1.483
840																																																																																					0.120	0.147	0.133	1.443	1.142	0.350	0.528	1.107	1.123	1.274	1.170	1.487
841																																																																																					0.120	0.146	0.132	1.440	1.132	0.346	0.522	1.096	1.115	1.268	1.169	1.489
842																																																																																					0.119	0.144	0.131	1.438	1.121	0.343	0.517	1.085	1.107	1.262	1.167	1.491
843																																																																																					0.118	0.144	0.130	1.435	1.110	0.339	0.511	1.073	1.098	1.255	1.166	1.494
844																																																																																					0.118	0.142	0.129	1.431	1.098	0.334	0.504	1.061	1.088	1.247	1.164	1.496
845																																																																																					0.117	0.141	0.128	1.426	1.085	0.329	0.497	1.046	1.077	1.239	1.161	1.498
846																																																																																					0.116	0.140	0.127	1.423	1.075	0.326	0.491	1.035	1.068	1.232	1.159	1.500
847																																																																																					0.115	0.139	0.126	1.418	1.063	0.322	0.485	1.023	1.059	1.224	1.156	1.500
848																																																																																					0.115	0.138	0.125	1.414	1.052	0.318	0.480	1.012	1.050	1.217	1.154	1.502
849																																																																																					0.114	0.137	0.125	1.410	1.042	0.315	0.474	1.001	1.041	1.210	1.151	1.502
850																																																																																					0.114	0.136	0.124	1.405	1.031	0.311	0.469	0.990	1.032	1.203	1.148	1.503
851																																																																																					0.113	0.135	0.123	1.400	1.020	0.307	0.463	0.978	1.023	1.195	1.145	1.503
852																																																																																					0.112	0.134	0.122	1.396	1.010	0.304	0.458	0.967	1.014	1.187	1.142	1.503
853																																																																																					0.112	0.133	0.122	1.390	0.998	0.300	0.452	0.955	1.004	1.179	1.138	1.503
854																																																																																					0.111	0.132	0.121	1.385	0.987	0.297	0.447	0.944	0.994	1.171	1.134	1.502
855																																																																																					0.110	0.131	0.120	1.379	0.977	0.294	0.442	0.933	0.986	1.163	1.130	1.500
856																																																																																					0.110	0.131	0.119	1.373	0.966	0.290	0.436	0.922	0.976	1.154	1.127	1.500
857																																																																																					0.109	0.129	0.119	1.368	0.956	0.287	0.431	0.911	0.967	1.146	1.123	1.499
858																																																																																					0.109	0.129	0.118	1.362	0.945	0.284	0.426	0.901	0.958	1.138	1.119	1.497
859																																																																																					0.108	0.128	0.117	1.356	0.935	0.281	0.422	0.891	0.950	1.130	1.114	1.495
860																																																																																					0.108	0.127	0.117	1.350	0.926	0.278	0.417	0.882	0.941	1.123	1.110	1.493
861																																																																																					0.107	0.127	0.116	1.344	0.916	0.275	0.412	0.871	0.932	1.114	1.106	1.491
862																																																																																					0.107	0.126	0.116	1.338	0.906	0.272	0.407	0.861	0.923	1.106	1.101	1.488
863																																																																																					0.107	0.125	0.115	1.331	0.896	0.269	0.403	0.851	0.914	1.098	1.096	1.486
864																																																																																					0.106	0.124	0.115	1.325	0.886	0.266	0.398	0.841	0.905	1.090	1.092	1.483
865																																																																																					0.106	0.124	0.114	1.319	0.877	0.264	0.394	0.832	0.897	1.081	1.087	1.480
866																																																																																					0.106	0.123	0.114	1.312	0.867	0.261	0.390	0.822	0.888	1.073	1.082	1.476
867																																																																																					0.106	0.123	0.114	1.306	0.859	0.259	0.386	0.814	0.881	1.066	1.078	1.473
868																																																																																					0.105	0.122	0.113	1.298	0.848	0.256	0.382	0.803	0.871	1.056	1.071	1.469
869																																																																																					0.105	0.122	0.113	1.291	0.839	0.253	0.377	0.794	0.862	1.048	1.066	1.465
870																																																																																					0.105	0.121	0.113	1.285	0.830	0.251	0.374	0.785	0.855	1.040	1.061	1.462
871																																																																																					0.105	0.121	0.113	1.278	0.822	0.249	0.370	0.777	0.847	1.033	1.056	1.458
872																																																																																					0.105	0.120	0.113	1.271	0.813	0.247	0.366	0.768	0.839	1.024	1.051	1.453
873																																																																																					0.105	0.120	0.113	1.264	0.805	0.245	0.363	0.760	0.832	1.017	1.046	1.449
874																																																																																					0.105	0.120	0.112	1.256	0.795	0.243	0.359	0.750	0.823	1.007	1.040	1.443
875																																																																																					0.104	0.119	0.112	1.249	0.786	0.240	0.355	0.742	0.815	0.999	1.034	1.438
876																																																																																					0.104	0.118	0.112	1.241	0.777	0.238	0.351	0.733	0.806	0.990	1.028	1.433
877																																																																																					0.104	0.118	0.111	1.232	0.768	0.235	0.347	0.724	0.797	0.981	1.021	1.427
878																																																																																					0.103	0.117	0.110	1.222	0.757	0.232	0.341	0.713	0.786	0.970	1.013	1.419
879																																																																																					0.102	0.116	0.109	1.210	0.745	0.228	0.336	0.701	0.774	0.958	1.004	1.410
880																																																																																					0.102	0.115	0.108	1.202	0.736	0.225	0.332	0.693	0.766	0.949	0.997	1.403
881																																																																																					0.101	0.114	0.108	1.196	0.730	0.224	0.329	0.686	0.760	0.942	0.992	1.398
882																																																																																					0.100	0.114	0.107	1.192	0.725	0.222	0.327	0.682	0.756	0.937	0.989	1.395
883																																																																																					0.100	0.114	0.107	1.188	0.721	0.221	0.326	0.678	0.753	0.933	0.986	1.392
884																																																																																					0.100	0.114	0.107	1.184	0.717	0.220	0.324	0.673	0.748	0.928	0.983	1.388
885																																																																																					0.099	0.113	0.106	1.177	0.709	0.218	0.320	0.666	0.741	0.920	0.976	1.381
886																																																																																					0.098	0.112	0.105	1.165	0.699	0.215	0.315	0.656	0.730	0.909	0.968	1.373
887																																																																																					0.098	0.111	0.104	1.155	0.689	0.212	0.311	0.647	0.721	0.899	0.959	1.363
888																																																																																					0.097	0.111	0.104	1.146	0.681	0.210	0.307	0.639	0.713	0.889	0.952	1.355
889																																																																																					0.097	0.110	0.104	1.137	0.673	0.208	0.304	0.631	0.705	0.881	0.945	1.347
890																																																																																					0.097	0.110	0.103	1.128	0.665	0.206	0.300	0.623	0.697	0.872	0.938	1.339
891																																																																																					0.096	0.109	0.103	1.119	0.656	0.204	0.297	0.615	0.689	0.863	0.930	1.331
892																																																																																					0.096	0.108	0.103	1.109	0.648	0.202	0.293	0.607	0.680	0.853	0.922	1.322
893																																																																																					0.096	0.108	0.102	1.098	0.638	0.199	0.289	0.598	0.670	0.843	0.913	1.312
894																																																																																					0.095	0.107	0.102	1.090	0.631	0.197	0.286	0.592	0.664	0.835	0.907	1.304
895																																																																																					0.095	0.107	0.102	1.084	0.626	0.196	0.284	0.587	0.659	0.829	0.902	1.298
896																																																																																					0.095	0.107	0.101	1.079	0.622	0.195	0.283	0.582	0.654	0.824	0.898	1.293
897																																																																																					0.095	0.107	0.101	1.073	0.617	0.194	0.281	0.578	0.650	0.818	0.893	1.288
898																																																																																					0.095	0.107	0.101	1.067	0.611	0.193	0.279	0.572	0.644	0.812	0.887	1.281
899																																																																																					0.094	0.106	0.101	1.056	0.603	0.191	0.275	0.564	0.636	0.802	0.879	1.271
900																																																																																					0.094	0.106	0.101	1.047	0.596	0.189	0.272	0.557	0.628	0.793	0.871	1.261
901																																																																																					0.094	0.105	0.101	1.035	0.587	0.187	0.269	0.549	0.620	0.783	0.862	1.250
902																																																																																					0.094	0.105	0.100	1.024	0.579	0.185	0.265	0.541	0.611	0.774	0.853	1.239
903																																																																																					0.094	0.105	0.100	1.016	0.573	0.183	0.262	0.535	0.604	0.766	0.846	1.230
904																																																																																					0.094	0.105	0.100	1.010	0.567	0.182	0.260	0.530	0.599	0.759	0.841	1.223
905																																																																																					0.093	0.104	0.100	1.005	0.564	0.181	0.259	0.527	0.596	0.755	0.837	1.218
906																																																																																					0.093	0.105	0.100	1.001	0.560	0.181	0.258	0.524	0.593	0.751	0.833	1.213
907																																																																																					0.093	0.104	0.100	0.995	0.555	0.180	0.256	0.519	0.588	0.745	0.828	1.207
908																																																																																					0.093	0.104	0.100	0.984	0.548	0.178	0.253	0.513	0.581	0.736	0.820	1.196
909																																																																																					0.093	0.104	0.100	0.973	0.541	0.177	0.250	0.505	0.573	0.727	0.811	1.184
910																																																																																					0.094	0.104	0.100	0.964	0.535	0.175	0.248	0.500	0.566	0.719	0.803	1.175
911																																																																																					0.094	0.104	0.100	0.956	0.529	0.174	0.246	0.494	0.560	0.712	0.796	1.166
912																																																																																					0.094	0.104	0.100	0.945	0.522	0.173	0.243	0.488	0.553	0.703	0.788	1.155
913																																																																																					0.094	0.104	0.100	0.934	0.515	0.171	0.240	0.481	0.545	0.694	0.779	1.143
914																																																																																					0.094	0.104	0.100	0.924	0.508	0.170	0.238	0.475	0.538	0.685	0.770	1.132
915																																																																																					0.094	0.104	0.101	0.918	0.504	0.170	0.236	0.471	0.534	0.680	0.765	1.125
916																																																																																					0.094	0.104	0.101	0.914	0.501	0.169	0.236	0.469	0.531	0.676	0.762	1.120
917																																																																																					0.094	0.104	0.101	0.911	0.499	0.169	0.235	0.467	0.529	0.672	0.759	1.116
918																																																																																					0.095	0.105	0.101	0.907	0.496	0.168	0.234	0.464	0.526	0.669	0.756	1.111
919																																																																																					0.095	0.105	0.102	0.900	0.492	0.168	0.233	0.460	0.522	0.663	0.750	1.103
920																																																																																					0.096	0.105	0.102	0.892	0.486	0.167	0.231	0.455	0.516	0.656	0.743	1.094
921																																																																																					0.096	0.106	0.103	0.883	0.481	0.166	0.229	0.451	0.510	0.649	0.735	1.083
922																																																																																					0.097	0.107	0.104	0.875	0.476	0.166	0.228	0.447	0.505	0.642	0.729	1.075
923																																																																																					0.098	0.107	0.104	0.867	0.472	0.165	0.226	0.442	0.501	0.636	0.723	1.065
924																																																																																					0.098	0.108	0.105	0.859	0.468	0.165	0.225	0.438	0.496	0.630	0.716	1.057
925																																																																																					0.099	0.109	0.106	0.852	0.463	0.165	0.224	0.435	0.491	0.624	0.710	1.048
926																																																																																					0.100	0.110	0.107	0.846	0.460	0.165	0.223	0.432	0.487	0.618	0.705	1.039
927																																																																																					0.101	0.111	0.108	0.839	0.457	0.164	0.222	0.429	0.483	0.613	0.699	1.032
928																																																																																					0.102	0.112	0.110	0.832	0.453	0.164	0.221	0.425	0.479	0.607	0.693	1.023
929																																																																																					0.103	0.113	0.111	0.825	0.449	0.164	0.220	0.423	0.475	0.602	0.687	1.015
930																																																																																					0.104	0.115	0.112	0.819	0.447	0.164	0.220	0.420	0.472	0.597	0.682	1.007
931																																																																																					0.105	0.116	0.114	0.813	0.444	0.165	0.219	0.418	0.469	0.592	0.677	1.000
932																																																																																					0.107	0.117	0.115	0.807	0.441	0.165	0.218	0.415	0.465	0.588	0.672	0.992
933																																																																																					0.108	0.119	0.117	0.800	0.438	0.165	0.218	0.413	0.461	0.583	0.667	0.985
934																																																																																					0.110	0.121	0.119	0.793	0.435	0.166	0.217	0.410	0.458	0.578	0.661	0.976
935																																																																																					0.112	0.123	0.121	0.787	0.432	0.166	0.217	0.408	0.454	0.573	0.656	0.968
936																																																																																					0.113	0.124	0.122	0.782	0.430	0.166	0.217	0.406	0.451	0.568	0.651	0.960
937																																																																																					0.114	0.126	0.124	0.777	0.428	0.167	0.217	0.405	0.449	0.565	0.647	0.954
938																																																																																					0.116	0.128	0.126	0.772	0.426	0.168	0.217	0.404	0.447	0.561	0.643	0.948
939																																																																																					0.117	0.129	0.128	0.768	0.424	0.168	0.217	0.403	0.445	0.558	0.639	0.942
940																																																																																					0.119	0.131	0.130	0.764	0.423	0.169	0.217	0.402	0.443	0.555	0.636	0.937
941																																																																																					0.121	0.134	0.132	0.759	0.421	0.170	0.217	0.400	0.441	0.551	0.631	0.930
942																																																																																					0.123	0.136	0.135	0.754	0.420	0.171	0.218	0.400	0.439	0.548	0.627	0.923
943																																																																																					0.125	0.139	0.137	0.749	0.419	0.172	0.218	0.399	0.436	0.544	0.623	0.916
944																																																																																					0.128	0.141	0.140	0.745	0.418	0.174	0.219	0.399	0.435	0.541	0.620	0.910
945																																																																																					0.130	0.144	0.143	0.741	0.417	0.175	0.220	0.398	0.433	0.539	0.616	0.904
946																																																																																					0.133	0.147	0.146	0.737	0.417	0.177	0.221	0.399	0.432	0.536	0.613	0.899
947																																																																																					0.137	0.151	0.150	0.734	0.417	0.179	0.222	0.400	0.431	0.534	0.610	0.894
948																																																																																					0.140	0.155	0.155	0.731	0.417	0.181	0.224	0.401	0.431	0.532	0.607	0.888
949																																																																																					0.143	0.160	0.159	0.728	0.418	0.184	0.226	0.402	0.430	0.530	0.605	0.884
950																																																																																					0.147	0.163	0.163	0.726	0.419	0.186	0.228	0.403	0.431	0.529	0.603	0.880
951																																																																																					0.151	0.168	0.167	0.724	0.420	0.189	0.230	0.405	0.431	0.528	0.602	0.876
952																																																																																					0.154	0.172	0.171	0.723	0.422	0.192	0.232	0.407	0.432	0.527	0.600	0.874
953																																																																																					0.158	0.177	0.176	0.721	0.423	0.195	0.234	0.409	0.432	0.527	0.599	0.870
954																																																																																					0.163	0.182	0.181	0.720	0.425	0.198	0.237	0.412	0.433	0.526	0.598	0.867
955																																																																																					0.168	0.187	0.187	0.718	0.427	0.201	0.239	0.414	0.434	0.525	0.596	0.863
956																																																																																					0.172	0.192	0.192	0.716	0.428	0.204	0.242	0.417	0.434	0.525	0.594	0.859
957																																																																																					0.176	0.196	0.196	0.714	0.429	0.207	0.244	0.418	0.434	0.524	0.592	0.854
958																																																																																					0.179	0.200	0.200	0.711	0.430	0.209	0.245	0.420	0.434	0.522	0.589	0.850
959																																																																																					0.182	0.203	0.203	0.707	0.430	0.211	0.246	0.420	0.433	0.520	0.586	0.844
960																																																																																					0.184	0.206	0.206	0.704	0.429	0.212	0.247	0.420	0.432	0.517	0.583	0.839
961																																																																																					0.186	0.208	0.208	0.700	0.428	0.213	0.248	0.420	0.430	0.515	0.580	0.833
962																																																																																					0.187	0.209	0.209	0.695	0.427	0.214	0.248	0.419	0.429	0.512	0.576	0.827
963																																																																																					0.188	0.210	0.211	0.691	0.426	0.215	0.248	0.418	0.427	0.509	0.573	0.821
964																																																																																					0.189	0.211	0.212	0.686	0.424	0.215	0.247	0.416	0.424	0.505	0.569	0.814
965																																																																																					0.190	0.212	0.213	0.681	0.422	0.215	0.247	0.415	0.422	0.502	0.564	0.808
966																																																																																					0.190	0.213	0.213	0.676	0.420	0.215	0.247	0.413	0.420	0.498	0.560	0.800
967																																																																																					0.191	0.213	0.214	0.670	0.418	0.215	0.246	0.411	0.417	0.494	0.555	0.793
968																																																																																					0.191	0.214	0.214	0.666	0.416	0.214	0.245	0.409	0.415	0.491	0.552	0.787
969																																																																																					0.191	0.214	0.215	0.661	0.413	0.214	0.245	0.407	0.412	0.488	0.548	0.781
970																																																																																					0.191	0.214	0.215	0.657	0.411	0.214	0.244	0.405	0.410	0.484	0.544	0.775
971																																																																																					0.192	0.214	0.215	0.652	0.409	0.214	0.243	0.403	0.407	0.481	0.539	0.768
972																																																																																					0.192	0.214	0.215	0.647	0.407	0.213	0.243	0.401	0.405	0.477	0.535	0.761
973																																																																																					0.192	0.214	0.215	0.641	0.404	0.213	0.242	0.399	0.402	0.473	0.530	0.754
974																																																																																					0.192	0.214	0.215	0.635	0.401	0.212	0.241	0.397	0.399	0.469	0.525	0.747
975																																																																																					0.192	0.214	0.215	0.629	0.398	0.211	0.239	0.394	0.395	0.465	0.520	0.738
976																																																																																					0.192	0.213	0.215	0.621	0.395	0.210	0.238	0.391	0.391	0.460	0.514	0.730
977																																																																																					0.190	0.212	0.214	0.616	0.392	0.209	0.236	0.388	0.388	0.456	0.509	0.722
978																																																																																					0.190	0.212	0.214	0.612	0.390	0.209	0.235	0.386	0.386	0.452	0.506	0.717
979																																																																																					0.190	0.212	0.213	0.609	0.388	0.209	0.235	0.384	0.384	0.450	0.503	0.713
980																																																																																					0.189	0.212	0.213	0.607	0.387	0.208	0.235	0.383	0.383	0.448	0.502	0.709
981																																																																																					0.189	0.212	0.212	0.604	0.385	0.208	0.235	0.381	0.382	0.446	0.500	0.706
982																																																																																					0.189	0.211	0.212	0.601	0.383	0.207	0.234	0.379	0.379	0.443	0.496	0.701
983																																																																																					0.188	0.210	0.211	0.594	0.380	0.206	0.232	0.376	0.377	0.439	0.491	0.693
984																																																																																					0.187	0.208	0.209	0.586	0.375	0.204	0.230	0.372	0.372	0.433	0.485	0.683
985																																																																																					0.185	0.207	0.208	0.578	0.371	0.202	0.227	0.368	0.367	0.427	0.478	0.673
986																																																																																					0.184	0.205	0.206	0.572	0.367	0.201	0.225	0.364	0.363	0.423	0.472	0.665
987																																																																																					0.183	0.203	0.205	0.565	0.363	0.199	0.223	0.360	0.359	0.418	0.466	0.657
988																																																																																					0.181	0.201	0.203	0.557	0.359	0.197	0.221	0.356	0.354	0.412	0.460	0.647
989																																																																																					0.180	0.200	0.202	0.550	0.355	0.195	0.219	0.352	0.350	0.408	0.454	0.639
990																																																																																					0.178	0.198	0.200	0.544	0.352	0.194	0.217	0.349	0.347	0.403	0.449	0.632
991																																																																																					0.177	0.197	0.199	0.541	0.349	0.193	0.215	0.347	0.344	0.400	0.446	0.627
992																																																																																					0.176	0.197	0.198	0.538	0.347	0.192	0.215	0.345	0.343	0.398	0.444	0.624
993																																																																																					0.176	0.196	0.197	0.536	0.346	0.192	0.215	0.344	0.342	0.396	0.443	0.621
994																																																																																					0.175	0.195	0.196	0.533	0.344	0.191	0.214	0.342	0.340	0.394	0.440	0.617
995																																																																																					0.174	0.194	0.195	0.529	0.341	0.190	0.213	0.339	0.338	0.391	0.437	0.612
996																																																																																					0.173	0.192	0.193	0.524	0.338	0.188	0.211	0.336	0.334	0.387	0.432	0.605
997																																																																																					0.171	0.190	0.191	0.516	0.333	0.186	0.208	0.331	0.330	0.381	0.426	0.596
998																																																																																					0.169	0.188	0.189	0.509	0.329	0.184	0.205	0.327	0.326	0.376	0.420	0.587
999																																																																																					0.167	0.185	0.187	0.503	0.325	0.182	0.203	0.324	0.322	0.372	0.415	0.580

结果
	1	2	3	4	5	6	7	8	9	10	11	12
A	?????	?????	?????	?????	?????	?????	?????	?????	?????	?????	?????	?????	Mean Max OD [Spectrum]
B	?????	?????	?????	?????	?????	?????	?????	?????	?????	?????	?????	?????	Mean Max OD [Spectrum]
C	?????	?????	?????	?????	?????	?????	?????	?????	?????	?????	?????	?????	Mean Max OD [Spectrum]
D	?????	?????	?????	?????	?????	?????	?????	?????	?????	?????	?????	?????	Mean Max OD [Spectrum]
E	?????	?????	?????	?????	?????	?????	?????	?????	?????	?????	?????	?????	Mean Max OD [Spectrum]
F	?????	?????	?????	?????	?????	?????	?????	?????	?????	?????	?????	?????	Mean Max OD [Spectrum]
G	?????	?????	?????	?????	?????	?????	?????	?????	?????	?????	?????	?????	Mean Max OD [Spectrum]
H	1.054	1.307	1.278	1.458	1.730	1.275	1.277	1.905	1.440	1.385	1.173	1.503	Mean Max OD [Spectrum]

