

软件版本	3.11.19



实验文件路径:	
方案文件路径:	



板编号	板 1
日期	2023/4/13
时间	8:55:20
检测仪类型:	Epoch 2
检测仪序列号:	2205170B
检测类型	检测仪

程序详细信息

板类型	96 WELL PLATE
完成后弹出板	
检测	吸收光 光谱
	A1..A12
	开始: 400 nm,  停止: 999 nm,  步骤: 1 nm
	检测前校准
	检测速度: 正常,  延迟: 100 msec,  测量值/数据点: 8

Spectrum

波长	A1	A2	A3	A4	A5	A6	A7	A8	A9	A10	A11	A12	B1	B2	B3	B4	B5	B6	B7	B8	B9	B10	B11	B12	C1	C2	C3	C4	C5	C6	C7	C8	C9	C10	C11	C12	D1	D2	D3	D4	D5	D6	D7	D8	D9	D10	D11	D12	E1	E2	E3	E4	E5	E6	E7	E8	E9	E10	E11	E12	F1	F2	F3	F4	F5	F6	F7	F8	F9	F10	F11	F12	G1	G2	G3	G4	G5	G6	G7	G8	G9	G10	G11	G12	H1	H2	H3	H4	H5	H6	H7	H8	H9	H10	H11	H12
400	0.583	0.604	0.589	0.546	0.592	0.545	0.535	0.637	0.518	0.484	0.596	0.546																																																																																				
401	0.582	0.603	0.588	0.545	0.591	0.544	0.534	0.636	0.517	0.483	0.595	0.545																																																																																				
402	0.580	0.601	0.586	0.544	0.589	0.542	0.532	0.634	0.515	0.482	0.593	0.543																																																																																				
403	0.578	0.599	0.585	0.542	0.588	0.541	0.531	0.632	0.514	0.481	0.592	0.542																																																																																				
404	0.577	0.598	0.583	0.541	0.586	0.539	0.530	0.631	0.513	0.479	0.590	0.540																																																																																				
405	0.576	0.597	0.582	0.539	0.585	0.538	0.529	0.629	0.512	0.478	0.589	0.539																																																																																				
406	0.574	0.595	0.581	0.538	0.583	0.537	0.527	0.628	0.511	0.477	0.587	0.538																																																																																				
407	0.573	0.594	0.579	0.537	0.582	0.536	0.526	0.626	0.509	0.476	0.586	0.537																																																																																				
408	0.571	0.592	0.578	0.535	0.581	0.534	0.525	0.625	0.508	0.475	0.585	0.535																																																																																				
409	0.570	0.591	0.577	0.534	0.579	0.533	0.523	0.624	0.507	0.474	0.583	0.534																																																																																				
410	0.569	0.589	0.575	0.533	0.578	0.532	0.522	0.622	0.506	0.473	0.582	0.533																																																																																				
411	0.567	0.588	0.574	0.532	0.577	0.531	0.521	0.620	0.505	0.471	0.581	0.531																																																																																				
412	0.566	0.587	0.573	0.530	0.575	0.529	0.520	0.619	0.504	0.470	0.579	0.530																																																																																				
413	0.565	0.585	0.571	0.529	0.574	0.528	0.518	0.617	0.502	0.469	0.578	0.529																																																																																				
414	0.563	0.584	0.570	0.528	0.573	0.527	0.517	0.616	0.501	0.468	0.577	0.528																																																																																				
415	0.562	0.582	0.569	0.526	0.571	0.525	0.516	0.615	0.500	0.467	0.575	0.526																																																																																				
416	0.560	0.581	0.568	0.525	0.570	0.524	0.515	0.613	0.499	0.466	0.574	0.525																																																																																				
417	0.559	0.580	0.566	0.524	0.569	0.523	0.514	0.612	0.498	0.465	0.573	0.524																																																																																				
418	0.558	0.578	0.565	0.523	0.567	0.522	0.512	0.610	0.497	0.464	0.571	0.523																																																																																				
419	0.557	0.577	0.564	0.522	0.566	0.521	0.511	0.609	0.496	0.463	0.570	0.522																																																																																				
420	0.556	0.576	0.563	0.521	0.565	0.520	0.510	0.607	0.495	0.462	0.569	0.521																																																																																				
421	0.554	0.574	0.562	0.519	0.564	0.519	0.509	0.606	0.494	0.461	0.568	0.520																																																																																				
422	0.553	0.573	0.561	0.518	0.563	0.518	0.508	0.605	0.493	0.460	0.567	0.519																																																																																				
423	0.552	0.572	0.560	0.517	0.562	0.517	0.507	0.604	0.492	0.459	0.566	0.518																																																																																				
424	0.551	0.571	0.559	0.516	0.560	0.516	0.506	0.603	0.491	0.458	0.565	0.517																																																																																				
425	0.550	0.570	0.558	0.516	0.559	0.515	0.505	0.602	0.490	0.457	0.563	0.516																																																																																				
426	0.549	0.569	0.556	0.514	0.558	0.514	0.504	0.600	0.489	0.456	0.562	0.515																																																																																				
427	0.548	0.568	0.556	0.514	0.557	0.513	0.503	0.599	0.488	0.456	0.561	0.514																																																																																				
428	0.547	0.567	0.554	0.513	0.556	0.512	0.502	0.598	0.487	0.455	0.560	0.513																																																																																				
429	0.546	0.565	0.553	0.511	0.555	0.511	0.501	0.597	0.486	0.454	0.559	0.512																																																																																				
430	0.545	0.564	0.552	0.510	0.554	0.510	0.500	0.596	0.485	0.453	0.558	0.511																																																																																				
431	0.544	0.563	0.551	0.509	0.553	0.509	0.499	0.594	0.485	0.452	0.557	0.510																																																																																				
432	0.543	0.562	0.550	0.508	0.552	0.508	0.498	0.593	0.484	0.451	0.556	0.509																																																																																				
433	0.542	0.561	0.549	0.508	0.551	0.507	0.497	0.592	0.483	0.451	0.555	0.508																																																																																				
434	0.541	0.560	0.548	0.506	0.550	0.506	0.497	0.591	0.482	0.450	0.554	0.507																																																																																				
435	0.540	0.559	0.547	0.506	0.549	0.505	0.496	0.590	0.481	0.449	0.553	0.506																																																																																				
436	0.539	0.558	0.546	0.505	0.548	0.504	0.495	0.589	0.480	0.448	0.552	0.505																																																																																				
437	0.538	0.557	0.545	0.504	0.547	0.503	0.494	0.588	0.479	0.447	0.551	0.504																																																																																				
438	0.537	0.556	0.544	0.503	0.546	0.502	0.493	0.587	0.478	0.446	0.550	0.503																																																																																				
439	0.536	0.555	0.543	0.502	0.545	0.502	0.492	0.586	0.478	0.446	0.549	0.502																																																																																				
440	0.535	0.554	0.542	0.501	0.544	0.501	0.491	0.585	0.477	0.445	0.548	0.501																																																																																				
441	0.534	0.553	0.541	0.500	0.543	0.500	0.491	0.584	0.476	0.444	0.547	0.500																																																																																				
442	0.533	0.552	0.540	0.500	0.543	0.499	0.490	0.583	0.475	0.443	0.546	0.500																																																																																				
443	0.532	0.551	0.540	0.499	0.542	0.499	0.489	0.582	0.475	0.443	0.545	0.499																																																																																				
444	0.531	0.550	0.539	0.498	0.541	0.498	0.488	0.581	0.474	0.442	0.545	0.498																																																																																				
445	0.531	0.549	0.538	0.497	0.540	0.497	0.488	0.580	0.473	0.442	0.544	0.497																																																																																				
446	0.530	0.549	0.537	0.496	0.539	0.496	0.487	0.579	0.473	0.441	0.543	0.497																																																																																				
447	0.529	0.548	0.537	0.496	0.539	0.496	0.486	0.579	0.472	0.440	0.542	0.496																																																																																				
448	0.528	0.547	0.536	0.495	0.538	0.495	0.486	0.578	0.471	0.440	0.542	0.495																																																																																				
449	0.528	0.547	0.535	0.494	0.537	0.494	0.485	0.577	0.471	0.439	0.541	0.495																																																																																				
450	0.527	0.546	0.535	0.494	0.537	0.494	0.484	0.576	0.470	0.439	0.540	0.494																																																																																				
451	0.526	0.545	0.534	0.493	0.536	0.493	0.484	0.576	0.470	0.438	0.539	0.493																																																																																				
452	0.525	0.544	0.533	0.492	0.535	0.492	0.483	0.575	0.469	0.437	0.539	0.493																																																																																				
453	0.525	0.544	0.533	0.492	0.535	0.492	0.483	0.574	0.469	0.437	0.538	0.492																																																																																				
454	0.524	0.543	0.532	0.491	0.534	0.491	0.482	0.573	0.468	0.436	0.537	0.491																																																																																				
455	0.524	0.542	0.531	0.491	0.534	0.491	0.482	0.573	0.468	0.436	0.537	0.491																																																																																				
456	0.523	0.542	0.531	0.490	0.533	0.491	0.481	0.572	0.467	0.435	0.536	0.490																																																																																				
457	0.523	0.541	0.531	0.490	0.532	0.490	0.481	0.572	0.467	0.435	0.536	0.490																																																																																				
458	0.522	0.541	0.530	0.489	0.532	0.490	0.481	0.571	0.466	0.435	0.535	0.489																																																																																				
459	0.522	0.540	0.530	0.489	0.532	0.490	0.480	0.571	0.466	0.434	0.535	0.489																																																																																				
460	0.521	0.540	0.530	0.489	0.532	0.489	0.480	0.570	0.466	0.434	0.535	0.489																																																																																				
461	0.521	0.540	0.529	0.488	0.531	0.489	0.480	0.570	0.466	0.434	0.535	0.488																																																																																				
462	0.521	0.540	0.529	0.488	0.531	0.489	0.480	0.570	0.465	0.434	0.534	0.488																																																																																				
463	0.521	0.540	0.529	0.488	0.531	0.489	0.479	0.570	0.465	0.434	0.534	0.488																																																																																				
464	0.521	0.540	0.529	0.488	0.531	0.489	0.479	0.570	0.465	0.434	0.534	0.488																																																																																				
465	0.521	0.540	0.529	0.488	0.531	0.489	0.479	0.570	0.465	0.434	0.534	0.488																																																																																				
466	0.521	0.540	0.529	0.488	0.531	0.489	0.479	0.570	0.465	0.433	0.534	0.488																																																																																				
467	0.521	0.540	0.529	0.488	0.531	0.489	0.480	0.570	0.465	0.434	0.534	0.488																																																																																				
468	0.521	0.540	0.530	0.488	0.531	0.489	0.480	0.570	0.465	0.434	0.534	0.488																																																																																				
469	0.521	0.540	0.530	0.488	0.532	0.490	0.480	0.571	0.466	0.434	0.535	0.488																																																																																				
470	0.522	0.541	0.530	0.489	0.532	0.490	0.481	0.571	0.466	0.434	0.535	0.489																																																																																				
471	0.522	0.541	0.531	0.489	0.533	0.490	0.481	0.571	0.466	0.435	0.535	0.489																																																																																				
472	0.523	0.542	0.531	0.490	0.533	0.491	0.482	0.572	0.467	0.435	0.536	0.489																																																																																				
473	0.523	0.542	0.532	0.490	0.534	0.492	0.482	0.573	0.468	0.436	0.537	0.490																																																																																				
474	0.524	0.543	0.533	0.491	0.535	0.493	0.483	0.574	0.468	0.436	0.537	0.491																																																																																				
475	0.525	0.544	0.534	0.492	0.536	0.494	0.484	0.575	0.469	0.437	0.538	0.492																																																																																				
476	0.526	0.545	0.535	0.493	0.537	0.495	0.485	0.576	0.470	0.438	0.540	0.492																																																																																				
477	0.527	0.547	0.537	0.494	0.539	0.496	0.486	0.578	0.471	0.439	0.541	0.494																																																																																				
478	0.529	0.548	0.538	0.496	0.540	0.497	0.488	0.579	0.472	0.441	0.542	0.495																																																																																				
479	0.530	0.550	0.540	0.497	0.542	0.499	0.489	0.581	0.474	0.442	0.544	0.496																																																																																				
480	0.532	0.552	0.542	0.499	0.544	0.501	0.491	0.583	0.475	0.443	0.546	0.498																																																																																				
481	0.534	0.554	0.544	0.501	0.546	0.503	0.493	0.586	0.477	0.445	0.548	0.500																																																																																				
482	0.537	0.557	0.547	0.503	0.549	0.506	0.496	0.588	0.480	0.448	0.551	0.502																																																																																				
483	0.539	0.559	0.549	0.505	0.551	0.508	0.498	0.591	0.482	0.449	0.553	0.504																																																																																				
484	0.541	0.561	0.551	0.507	0.553	0.510	0.499	0.593	0.483	0.451	0.555	0.506																																																																																				
485	0.543	0.564	0.554	0.509	0.556	0.512	0.501	0.596	0.485	0.453	0.557	0.508																																																																																				
486	0.546	0.567	0.557	0.512	0.559	0.514	0.504	0.599	0.488	0.455	0.560	0.510																																																																																				
487	0.550	0.570	0.560	0.515	0.563	0.518	0.507	0.603	0.491	0.458	0.564	0.514																																																																																				
488	0.553	0.574	0.564	0.518	0.566	0.521	0.511	0.607	0.494	0.461	0.568	0.517																																																																																				
489	0.556	0.577	0.567	0.521	0.569	0.524	0.513	0.610	0.497	0.463	0.571	0.519																																																																																				
490	0.560	0.582	0.571	0.525	0.574	0.528	0.517	0.614	0.500	0.467	0.575	0.523																																																																																				
491	0.565	0.586	0.576	0.529	0.579	0.533	0.521	0.620	0.504	0.470	0.579	0.527																																																																																				
492	0.569	0.590	0.580	0.533	0.582	0.536	0.525	0.624	0.508	0.473	0.583	0.530																																																																																				
493	0.572	0.594	0.584	0.537	0.587	0.540	0.529	0.628	0.511	0.477	0.587	0.534																																																																																				
494	0.577	0.599	0.589	0.541	0.591	0.544	0.533	0.633	0.515	0.480	0.592	0.538																																																																																				
495	0.582	0.605	0.595	0.546	0.597	0.549	0.538	0.639	0.520	0.485	0.598	0.543																																																																																				
496	0.588	0.611	0.601	0.551	0.603	0.555	0.543	0.646	0.525	0.490	0.603	0.548																																																																																				
497	0.594	0.617	0.607	0.556	0.609	0.560	0.548	0.652	0.530	0.494	0.609	0.553																																																																																				
498	0.598	0.621	0.611	0.560	0.613	0.564	0.552	0.656	0.534	0.497	0.613	0.556																																																																																				
499	0.602	0.626	0.616	0.564	0.618	0.569	0.556	0.661	0.538	0.501	0.617	0.560																																																																																				
500	0.607	0.631	0.621	0.569	0.623	0.573	0.561	0.667	0.542	0.505	0.622	0.565																																																																																				
501	0.612	0.636	0.626	0.573	0.628	0.578	0.566	0.672	0.546	0.509	0.627	0.569																																																																																				
502	0.617	0.641	0.631	0.578	0.633	0.583	0.570	0.677	0.550	0.513	0.632	0.573																																																																																				
503	0.621	0.646	0.636	0.582	0.638	0.587	0.574	0.682	0.554	0.516	0.636	0.577																																																																																				
504	0.626	0.651	0.641	0.586	0.643	0.592	0.579	0.688	0.558	0.520	0.641	0.581																																																																																				
505	0.629	0.655	0.645	0.590	0.647	0.596	0.582	0.692	0.562	0.524	0.645	0.585																																																																																				
506	0.633	0.660	0.649	0.594	0.652	0.600	0.586	0.697	0.565	0.527	0.649	0.588																																																																																				
507	0.637	0.663	0.653	0.597	0.656	0.603	0.590	0.701	0.568	0.530	0.652	0.591																																																																																				
508	0.640	0.667	0.657	0.600	0.659	0.606	0.593	0.704	0.571	0.532	0.655	0.593																																																																																				
509	0.643	0.670	0.660	0.602	0.662	0.609	0.596	0.707	0.573	0.535	0.658	0.596																																																																																				
510	0.645	0.673	0.663	0.605	0.666	0.612	0.598	0.710	0.576	0.537	0.660	0.598																																																																																				
511	0.647	0.675	0.665	0.606	0.668	0.614	0.600	0.713	0.577	0.538	0.662	0.599																																																																																				
512	0.649	0.677	0.668	0.608	0.670	0.616	0.602	0.714	0.579	0.540	0.664	0.601																																																																																				
513	0.650	0.678	0.669	0.609	0.671	0.618	0.603	0.716	0.580	0.541	0.665	0.601																																																																																				
514	0.651	0.679	0.670	0.610	0.672	0.618	0.604	0.717	0.581	0.541	0.666	0.602																																																																																				
515	0.651	0.680	0.671	0.610	0.673	0.619	0.605	0.717	0.581	0.541	0.666	0.602																																																																																				
516	0.651	0.680	0.671	0.610	0.674	0.620	0.605	0.717	0.581	0.541	0.666	0.602																																																																																				
517	0.650	0.679	0.671	0.610	0.673	0.620	0.605	0.717	0.581	0.541	0.665	0.601																																																																																				
518	0.650	0.679	0.671	0.609	0.673	0.619	0.605	0.717	0.580	0.541	0.664	0.600																																																																																				
519	0.649	0.678	0.671	0.608	0.673	0.619	0.604	0.716	0.579	0.540	0.664	0.599																																																																																				
520	0.647	0.677	0.670	0.607	0.672	0.618	0.603	0.715	0.579	0.539	0.662	0.598																																																																																				
521	0.646	0.676	0.669	0.606	0.670	0.617	0.602	0.713	0.577	0.538	0.661	0.596																																																																																				
522	0.644	0.674	0.667	0.604	0.669	0.616	0.601	0.711	0.576	0.536	0.659	0.594																																																																																				
523	0.642	0.672	0.665	0.602	0.667	0.614	0.599	0.709	0.574	0.534	0.656	0.592																																																																																				
524	0.639	0.669	0.663	0.600	0.665	0.612	0.597	0.706	0.571	0.532	0.653	0.590																																																																																				
525	0.636	0.667	0.660	0.597	0.662	0.609	0.594	0.703	0.569	0.530	0.651	0.587																																																																																				
526	0.633	0.664	0.658	0.594	0.660	0.607	0.592	0.700	0.566	0.528	0.647	0.584																																																																																				
527	0.630	0.660	0.655	0.591	0.656	0.604	0.589	0.696	0.563	0.525	0.644	0.581																																																																																				
528	0.627	0.658	0.652	0.589	0.654	0.602	0.587	0.693	0.561	0.523	0.641	0.579																																																																																				
529	0.624	0.655	0.650	0.586	0.651	0.599	0.584	0.691	0.559	0.520	0.638	0.576																																																																																				
530	0.622	0.653	0.647	0.583	0.649	0.597	0.582	0.687	0.556	0.518	0.635	0.573																																																																																				
531	0.618	0.649	0.644	0.580	0.645	0.594	0.579	0.684	0.553	0.515	0.632	0.570																																																																																				
532	0.613	0.644	0.639	0.576	0.641	0.590	0.575	0.679	0.549	0.511	0.627	0.566																																																																																				
533	0.609	0.640	0.635	0.572	0.637	0.586	0.571	0.674	0.546	0.508	0.623	0.562																																																																																				
534	0.605	0.636	0.632	0.569	0.633	0.582	0.567	0.670	0.542	0.505	0.619	0.559																																																																																				
535	0.601	0.632	0.627	0.564	0.629	0.578	0.563	0.665	0.539	0.501	0.615	0.555																																																																																				
536	0.596	0.627	0.623	0.560	0.624	0.574	0.559	0.660	0.535	0.497	0.610	0.551																																																																																				
537	0.591	0.623	0.618	0.555	0.619	0.570	0.555	0.655	0.530	0.493	0.605	0.546																																																																																				
538	0.586	0.617	0.613	0.551	0.614	0.565	0.550	0.649	0.526	0.489	0.600	0.542																																																																																				
539	0.581	0.612	0.608	0.546	0.609	0.560	0.546	0.643	0.522	0.485	0.594	0.537																																																																																				
540	0.575	0.607	0.602	0.541	0.604	0.555	0.540	0.637	0.517	0.480	0.589	0.532																																																																																				
541	0.571	0.602	0.597	0.536	0.599	0.550	0.536	0.632	0.512	0.476	0.584	0.528																																																																																				
542	0.566	0.597	0.593	0.532	0.594	0.546	0.531	0.626	0.508	0.472	0.579	0.524																																																																																				
543	0.561	0.592	0.588	0.528	0.590	0.542	0.527	0.622	0.505	0.469	0.575	0.520																																																																																				
544	0.556	0.587	0.582	0.523	0.584	0.536	0.522	0.615	0.500	0.464	0.569	0.515																																																																																				
545	0.549	0.580	0.576	0.517	0.577	0.530	0.516	0.608	0.494	0.459	0.563	0.510																																																																																				
546	0.543	0.574	0.570	0.511	0.571	0.524	0.510	0.601	0.489	0.454	0.556	0.504																																																																																				
547	0.537	0.568	0.563	0.506	0.565	0.519	0.505	0.595	0.484	0.449	0.550	0.499																																																																																				
548	0.531	0.562	0.557	0.500	0.559	0.513	0.499	0.588	0.479	0.444	0.544	0.494																																																																																				
549	0.525	0.556	0.551	0.495	0.553	0.507	0.494	0.582	0.474	0.439	0.539	0.489																																																																																				
550	0.518	0.549	0.544	0.489	0.546	0.501	0.487	0.574	0.468	0.434	0.532	0.483																																																																																				
551	0.512	0.542	0.538	0.483	0.539	0.495	0.482	0.567	0.462	0.429	0.526	0.478																																																																																				
552	0.505	0.535	0.530	0.477	0.532	0.488	0.475	0.559	0.456	0.423	0.519	0.472																																																																																				
553	0.499	0.528	0.523	0.471	0.525	0.482	0.469	0.552	0.451	0.418	0.512	0.466																																																																																				
554	0.492	0.521	0.516	0.464	0.518	0.475	0.463	0.544	0.445	0.412	0.505	0.461																																																																																				
555	0.486	0.515	0.510	0.458	0.512	0.469	0.457	0.538	0.439	0.407	0.499	0.455																																																																																				
556	0.478	0.507	0.502	0.452	0.504	0.462	0.450	0.529	0.433	0.401	0.491	0.449																																																																																				
557	0.472	0.500	0.495	0.446	0.496	0.455	0.444	0.522	0.427	0.395	0.485	0.443																																																																																				
558	0.464	0.492	0.487	0.438	0.488	0.448	0.436	0.513	0.420	0.389	0.477	0.436																																																																																				
559	0.457	0.484	0.479	0.431	0.481	0.441	0.429	0.505	0.414	0.383	0.469	0.430																																																																																				
560	0.449	0.476	0.470	0.424	0.472	0.433	0.422	0.496	0.407	0.377	0.462	0.423																																																																																				
561	0.442	0.468	0.463	0.418	0.465	0.427	0.415	0.489	0.401	0.371	0.455	0.417																																																																																				
562	0.435	0.461	0.456	0.412	0.458	0.420	0.409	0.481	0.395	0.366	0.448	0.411																																																																																				
563	0.430	0.455	0.450	0.407	0.452	0.415	0.404	0.475	0.390	0.361	0.443	0.406																																																																																				
564	0.423	0.448	0.443	0.400	0.445	0.408	0.398	0.467	0.384	0.355	0.436	0.400																																																																																				
565	0.416	0.440	0.434	0.393	0.437	0.401	0.390	0.459	0.377	0.349	0.428	0.393																																																																																				
566	0.409	0.433	0.428	0.387	0.430	0.394	0.384	0.451	0.372	0.344	0.421	0.388																																																																																				
567	0.403	0.426	0.421	0.381	0.423	0.388	0.378	0.444	0.366	0.339	0.415	0.382																																																																																				
568	0.397	0.419	0.414	0.375	0.416	0.382	0.373	0.437	0.360	0.334	0.409	0.376																																																																																				
569	0.390	0.412	0.407	0.369	0.409	0.376	0.366	0.430	0.354	0.328	0.402	0.370																																																																																				
570	0.384	0.405	0.400	0.363	0.402	0.370	0.360	0.423	0.349	0.323	0.396	0.365																																																																																				
571	0.377	0.398	0.393	0.357	0.395	0.363	0.354	0.415	0.343	0.317	0.389	0.358																																																																																				
572	0.371	0.391	0.386	0.351	0.388	0.357	0.348	0.408	0.337	0.312	0.382	0.353																																																																																				
573	0.365	0.385	0.379	0.345	0.382	0.351	0.343	0.401	0.332	0.307	0.376	0.348																																																																																				
574	0.360	0.378	0.373	0.340	0.376	0.346	0.337	0.395	0.327	0.302	0.371	0.343																																																																																				
575	0.354	0.372	0.367	0.334	0.369	0.340	0.332	0.388	0.322	0.298	0.365	0.337																																																																																				
576	0.349	0.366	0.362	0.330	0.364	0.335	0.327	0.383	0.317	0.293	0.359	0.333																																																																																				
577	0.344	0.360	0.356	0.325	0.358	0.330	0.322	0.377	0.312	0.289	0.354	0.328																																																																																				
578	0.338	0.354	0.350	0.319	0.352	0.324	0.317	0.370	0.307	0.284	0.348	0.323																																																																																				
579	0.333	0.347	0.344	0.314	0.346	0.319	0.311	0.364	0.302	0.280	0.342	0.317																																																																																				
580	0.327	0.341	0.338	0.309	0.340	0.313	0.306	0.358	0.297	0.275	0.337	0.312																																																																																				
581	0.322	0.336	0.332	0.304	0.334	0.309	0.302	0.352	0.293	0.271	0.331	0.308																																																																																				
582	0.317	0.331	0.327	0.299	0.329	0.304	0.297	0.347	0.288	0.267	0.327	0.303																																																																																				
583	0.312	0.325	0.321	0.294	0.324	0.299	0.292	0.341	0.284	0.263	0.321	0.299																																																																																				
584	0.308	0.320	0.316	0.290	0.318	0.294	0.287	0.335	0.279	0.259	0.316	0.294																																																																																				
585	0.303	0.314	0.311	0.285	0.313	0.289	0.283	0.330	0.275	0.255	0.312	0.290																																																																																				
586	0.298	0.309	0.305	0.281	0.308	0.285	0.279	0.325	0.271	0.251	0.307	0.286																																																																																				
587	0.294	0.304	0.301	0.277	0.303	0.280	0.275	0.320	0.267	0.247	0.302	0.281																																																																																				
588	0.290	0.299	0.296	0.273	0.299	0.276	0.271	0.315	0.263	0.244	0.298	0.278																																																																																				
589	0.286	0.295	0.292	0.269	0.294	0.273	0.267	0.311	0.260	0.241	0.294	0.274																																																																																				
590	0.282	0.291	0.288	0.265	0.290	0.269	0.263	0.306	0.256	0.238	0.290	0.271																																																																																				
591	0.279	0.287	0.284	0.262	0.286	0.265	0.260	0.302	0.253	0.234	0.286	0.267																																																																																				
592	0.275	0.283	0.280	0.259	0.283	0.262	0.257	0.298	0.250	0.232	0.283	0.264																																																																																				
593	0.272	0.279	0.276	0.255	0.279	0.259	0.254	0.294	0.247	0.229	0.279	0.261																																																																																				
594	0.269	0.275	0.273	0.252	0.275	0.255	0.250	0.290	0.243	0.226	0.276	0.258																																																																																				
595	0.266	0.272	0.269	0.249	0.271	0.252	0.247	0.286	0.240	0.223	0.272	0.255																																																																																				
596	0.262	0.268	0.265	0.246	0.268	0.249	0.244	0.283	0.238	0.221	0.269	0.252																																																																																				
597	0.260	0.265	0.263	0.243	0.265	0.246	0.242	0.280	0.235	0.219	0.266	0.249																																																																																				
598	0.257	0.262	0.259	0.241	0.262	0.243	0.239	0.277	0.233	0.216	0.263	0.247																																																																																				
599	0.255	0.259	0.256	0.238	0.259	0.241	0.236	0.274	0.231	0.214	0.261	0.244																																																																																				
600	0.252	0.256	0.253	0.235	0.256	0.238	0.234	0.271	0.228	0.212	0.258	0.242																																																																																				
601	0.249	0.253	0.250	0.233	0.253	0.235	0.231	0.267	0.225	0.209	0.255	0.239																																																																																				
602	0.246	0.250	0.247	0.230	0.250	0.232	0.228	0.264	0.223	0.207	0.252	0.236																																																																																				
603	0.244	0.247	0.244	0.228	0.247	0.230	0.226	0.261	0.220	0.205	0.249	0.234																																																																																				
604	0.242	0.245	0.242	0.226	0.245	0.228	0.224	0.259	0.218	0.203	0.247	0.232																																																																																				
605	0.240	0.242	0.240	0.224	0.242	0.226	0.222	0.257	0.217	0.201	0.245	0.230																																																																																				
606	0.238	0.240	0.237	0.222	0.240	0.224	0.220	0.254	0.215	0.200	0.243	0.229																																																																																				
607	0.236	0.238	0.235	0.220	0.238	0.222	0.218	0.252	0.213	0.198	0.241	0.227																																																																																				
608	0.234	0.235	0.233	0.218	0.236	0.220	0.216	0.250	0.211	0.196	0.238	0.225																																																																																				
609	0.232	0.233	0.231	0.216	0.234	0.217	0.214	0.247	0.209	0.195	0.237	0.223																																																																																				
610	0.231	0.232	0.229	0.214	0.232	0.216	0.213	0.245	0.208	0.193	0.235	0.221																																																																																				
611	0.229	0.230	0.227	0.213	0.230	0.214	0.211	0.243	0.206	0.192	0.233	0.220																																																																																				
612	0.227	0.228	0.225	0.211	0.228	0.213	0.210	0.242	0.205	0.191	0.232	0.218																																																																																				
613	0.226	0.226	0.223	0.210	0.226	0.211	0.208	0.240	0.203	0.189	0.230	0.217																																																																																				
614	0.224	0.224	0.221	0.208	0.224	0.209	0.206	0.238	0.202	0.188	0.228	0.215																																																																																				
615	0.223	0.222	0.220	0.206	0.223	0.208	0.205	0.236	0.200	0.187	0.226	0.214																																																																																				
616	0.221	0.221	0.218	0.205	0.221	0.206	0.203	0.234	0.199	0.185	0.225	0.212																																																																																				
617	0.220	0.219	0.217	0.204	0.220	0.205	0.202	0.233	0.198	0.184	0.224	0.211																																																																																				
618	0.219	0.218	0.215	0.203	0.218	0.203	0.201	0.231	0.197	0.183	0.222	0.210																																																																																				
619	0.218	0.216	0.214	0.201	0.217	0.202	0.200	0.230	0.196	0.182	0.221	0.209																																																																																				
620	0.216	0.215	0.212	0.200	0.215	0.201	0.198	0.228	0.194	0.181	0.220	0.207																																																																																				
621	0.215	0.213	0.211	0.199	0.214	0.200	0.197	0.227	0.193	0.180	0.218	0.206																																																																																				
622	0.214	0.212	0.209	0.198	0.212	0.199	0.196	0.226	0.192	0.179	0.217	0.205																																																																																				
623	0.213	0.211	0.208	0.197	0.211	0.198	0.195	0.225	0.191	0.178	0.216	0.204																																																																																				
624	0.212	0.210	0.207	0.196	0.210	0.197	0.194	0.223	0.190	0.177	0.215	0.203																																																																																				
625	0.212	0.209	0.206	0.195	0.209	0.196	0.193	0.222	0.189	0.176	0.214	0.202																																																																																				
626	0.211	0.208	0.205	0.194	0.208	0.195	0.192	0.221	0.189	0.176	0.213	0.201																																																																																				
627	0.210	0.207	0.204	0.193	0.207	0.194	0.192	0.220	0.188	0.175	0.212	0.200																																																																																				
628	0.209	0.206	0.203	0.193	0.207	0.193	0.191	0.220	0.187	0.175	0.211	0.200																																																																																				
629	0.209	0.205	0.202	0.192	0.206	0.192	0.190	0.218	0.186	0.174	0.211	0.199																																																																																				
630	0.208	0.204	0.202	0.191	0.205	0.192	0.189	0.218	0.186	0.173	0.210	0.198																																																																																				
631	0.208	0.204	0.201	0.191	0.204	0.191	0.189	0.217	0.185	0.173	0.209	0.198																																																																																				
632	0.207	0.203	0.200	0.190	0.203	0.190	0.188	0.216	0.184	0.172	0.208	0.197																																																																																				
633	0.207	0.202	0.199	0.190	0.203	0.190	0.188	0.216	0.184	0.172	0.208	0.197																																																																																				
634	0.206	0.202	0.199	0.189	0.202	0.189	0.187	0.215	0.183	0.171	0.207	0.196																																																																																				
635	0.206	0.201	0.198	0.188	0.202	0.189	0.186	0.214	0.183	0.171	0.207	0.196																																																																																				
636	0.206	0.200	0.198	0.188	0.201	0.188	0.186	0.214	0.183	0.171	0.207	0.195																																																																																				
637	0.205	0.200	0.197	0.188	0.201	0.188	0.186	0.213	0.182	0.170	0.206	0.195																																																																																				
638	0.205	0.199	0.196	0.187	0.200	0.187	0.185	0.213	0.182	0.170	0.206	0.194																																																																																				
639	0.205	0.199	0.196	0.187	0.200	0.187	0.185	0.212	0.181	0.170	0.205	0.194																																																																																				
640	0.205	0.199	0.196	0.187	0.199	0.186	0.185	0.212	0.181	0.169	0.205	0.194																																																																																				
641	0.205	0.198	0.195	0.186	0.199	0.186	0.184	0.212	0.181	0.169	0.205	0.193																																																																																				
642	0.205	0.198	0.195	0.186	0.199	0.186	0.184	0.212	0.181	0.169	0.205	0.193																																																																																				
643	0.205	0.198	0.195	0.186	0.198	0.186	0.184	0.211	0.181	0.169	0.204	0.193																																																																																				
644	0.205	0.197	0.194	0.186	0.198	0.185	0.184	0.211	0.180	0.169	0.204	0.193																																																																																				
645	0.205	0.198	0.194	0.186	0.198	0.185	0.184	0.211	0.180	0.169	0.204	0.193																																																																																				
646	0.205	0.197	0.194	0.186	0.198	0.185	0.184	0.211	0.180	0.169	0.204	0.193																																																																																				
647	0.205	0.197	0.194	0.185	0.198	0.185	0.183	0.211	0.180	0.168	0.204	0.192																																																																																				
648	0.205	0.197	0.194	0.185	0.198	0.185	0.183	0.211	0.180	0.168	0.204	0.193																																																																																				
649	0.205	0.197	0.194	0.186	0.198	0.185	0.183	0.211	0.180	0.169	0.204	0.192																																																																																				
650	0.206	0.197	0.194	0.186	0.198	0.185	0.184	0.211	0.180	0.169	0.204	0.192																																																																																				
651	0.206	0.197	0.194	0.186	0.198	0.185	0.184	0.211	0.180	0.169	0.204	0.193																																																																																				
652	0.207	0.197	0.194	0.186	0.198	0.185	0.184	0.211	0.180	0.169	0.204	0.193																																																																																				
653	0.207	0.197	0.194	0.186	0.198	0.186	0.184	0.212	0.180	0.169	0.205	0.193																																																																																				
654	0.208	0.197	0.194	0.186	0.198	0.186	0.184	0.212	0.181	0.169	0.205	0.193																																																																																				
655	0.208	0.198	0.194	0.187	0.199	0.186	0.184	0.212	0.181	0.170	0.205	0.193																																																																																				
656	0.209	0.198	0.195	0.187	0.199	0.186	0.185	0.212	0.181	0.170	0.205	0.193																																																																																				
657	0.209	0.198	0.195	0.188	0.199	0.187	0.185	0.213	0.181	0.170	0.206	0.194																																																																																				
658	0.210	0.199	0.195	0.188	0.199	0.187	0.185	0.213	0.182	0.171	0.206	0.194																																																																																				
659	0.211	0.199	0.196	0.188	0.200	0.187	0.186	0.214	0.182	0.171	0.207	0.194																																																																																				
660	0.211	0.199	0.196	0.189	0.200	0.188	0.186	0.214	0.182	0.171	0.207	0.195																																																																																				
661	0.212	0.200	0.197	0.189	0.201	0.188	0.187	0.215	0.183	0.172	0.208	0.195																																																																																				
662	0.213	0.201	0.197	0.190	0.201	0.189	0.187	0.216	0.183	0.172	0.208	0.196																																																																																				
663	0.214	0.201	0.198	0.190	0.202	0.189	0.188	0.216	0.184	0.173	0.209	0.196																																																																																				
664	0.215	0.202	0.198	0.191	0.203	0.190	0.188	0.217	0.184	0.173	0.209	0.197																																																																																				
665	0.216	0.202	0.199	0.192	0.203	0.190	0.189	0.218	0.185	0.174	0.210	0.197																																																																																				
666	0.217	0.203	0.199	0.192	0.204	0.191	0.190	0.218	0.186	0.174	0.211	0.198																																																																																				
667	0.218	0.204	0.200	0.193	0.204	0.192	0.190	0.219	0.186	0.175	0.212	0.198																																																																																				
668	0.220	0.204	0.201	0.194	0.205	0.192	0.191	0.220	0.187	0.176	0.213	0.199																																																																																				
669	0.221	0.205	0.202	0.195	0.206	0.193	0.192	0.221	0.188	0.177	0.213	0.200																																																																																				
670	0.222	0.206	0.203	0.196	0.207	0.194	0.193	0.222	0.189	0.177	0.215	0.201																																																																																				
671	0.223	0.207	0.203	0.197	0.208	0.195	0.194	0.224	0.189	0.178	0.215	0.201																																																																																				
672	0.225	0.208	0.204	0.198	0.209	0.196	0.195	0.225	0.190	0.179	0.216	0.202																																																																																				
673	0.226	0.209	0.205	0.199	0.210	0.197	0.196	0.226	0.191	0.180	0.218	0.203																																																																																				
674	0.228	0.210	0.207	0.200	0.211	0.198	0.197	0.227	0.192	0.181	0.219	0.204																																																																																				
675	0.230	0.212	0.208	0.201	0.212	0.199	0.198	0.229	0.193	0.182	0.220	0.205																																																																																				
676	0.232	0.213	0.209	0.202	0.214	0.200	0.199	0.230	0.194	0.183	0.222	0.206																																																																																				
677	0.234	0.214	0.210	0.203	0.215	0.201	0.200	0.232	0.196	0.184	0.223	0.207																																																																																				
678	0.235	0.215	0.211	0.205	0.216	0.203	0.201	0.233	0.196	0.185	0.224	0.208																																																																																				
679	0.237	0.217	0.213	0.206	0.218	0.204	0.203	0.235	0.198	0.187	0.226	0.209																																																																																				
680	0.239	0.218	0.214	0.208	0.219	0.205	0.204	0.236	0.199	0.188	0.227	0.211																																																																																				
681	0.242	0.220	0.216	0.209	0.221	0.207	0.206	0.238	0.201	0.189	0.229	0.212																																																																																				
682	0.244	0.222	0.217	0.211	0.222	0.208	0.207	0.240	0.202	0.191	0.231	0.213																																																																																				
683	0.246	0.223	0.219	0.212	0.224	0.210	0.209	0.242	0.203	0.192	0.232	0.214																																																																																				
684	0.248	0.225	0.221	0.214	0.226	0.211	0.210	0.244	0.205	0.194	0.234	0.216																																																																																				
685	0.251	0.227	0.223	0.216	0.228	0.213	0.212	0.246	0.206	0.195	0.236	0.218																																																																																				
686	0.254	0.229	0.225	0.218	0.230	0.215	0.214	0.248	0.208	0.197	0.238	0.219																																																																																				
687	0.257	0.231	0.227	0.220	0.232	0.217	0.216	0.251	0.210	0.199	0.240	0.221																																																																																				
688	0.260	0.234	0.229	0.222	0.234	0.220	0.218	0.254	0.212	0.201	0.242	0.223																																																																																				
689	0.263	0.236	0.231	0.224	0.236	0.222	0.221	0.256	0.214	0.203	0.245	0.225																																																																																				
690	0.266	0.238	0.233	0.226	0.238	0.224	0.223	0.258	0.216	0.205	0.247	0.226																																																																																				
691	0.269	0.240	0.236	0.229	0.241	0.226	0.225	0.261	0.218	0.206	0.249	0.228																																																																																				
692	0.273	0.243	0.238	0.231	0.243	0.228	0.227	0.264	0.220	0.209	0.252	0.230																																																																																				
693	0.276	0.245	0.241	0.233	0.246	0.230	0.230	0.267	0.222	0.211	0.254	0.232																																																																																				
694	0.280	0.248	0.243	0.236	0.248	0.233	0.232	0.270	0.224	0.213	0.257	0.234																																																																																				
695	0.284	0.251	0.246	0.238	0.251	0.236	0.234	0.273	0.227	0.216	0.260	0.237																																																																																				
696	0.288	0.254	0.249	0.241	0.254	0.238	0.237	0.277	0.229	0.218	0.263	0.239																																																																																				
697	0.292	0.257	0.252	0.245	0.258	0.241	0.241	0.281	0.232	0.221	0.266	0.242																																																																																				
698	0.296	0.260	0.255	0.247	0.260	0.244	0.243	0.283	0.234	0.223	0.269	0.244																																																																																				
699	0.300	0.263	0.258	0.250	0.263	0.247	0.246	0.287	0.237	0.226	0.272	0.246																																																																																				
700	0.304	0.266	0.261	0.253	0.266	0.250	0.249	0.291	0.240	0.229	0.275	0.249																																																																																				
701	0.309	0.270	0.265	0.256	0.270	0.253	0.252	0.295	0.243	0.231	0.279	0.252																																																																																				
702	0.314	0.273	0.268	0.260	0.274	0.257	0.256	0.299	0.246	0.235	0.282	0.254																																																																																				
703	0.320	0.278	0.272	0.264	0.278	0.260	0.260	0.303	0.249	0.238	0.286	0.258																																																																																				
704	0.324	0.281	0.276	0.267	0.281	0.264	0.263	0.308	0.253	0.241	0.290	0.260																																																																																				
705	0.330	0.285	0.280	0.271	0.286	0.268	0.267	0.312	0.256	0.245	0.294	0.264																																																																																				
706	0.335	0.289	0.284	0.275	0.290	0.272	0.271	0.317	0.260	0.248	0.299	0.267																																																																																				
707	0.341	0.293	0.289	0.279	0.294	0.276	0.275	0.322	0.263	0.252	0.303	0.271																																																																																				
708	0.346	0.298	0.293	0.283	0.299	0.280	0.279	0.327	0.267	0.255	0.307	0.274																																																																																				
709	0.353	0.302	0.298	0.288	0.304	0.285	0.283	0.332	0.272	0.260	0.312	0.279																																																																																				
710	0.359	0.307	0.302	0.292	0.308	0.289	0.288	0.337	0.275	0.263	0.317	0.282																																																																																				
711	0.365	0.312	0.307	0.296	0.313	0.294	0.293	0.343	0.280	0.267	0.322	0.286																																																																																				
712	0.372	0.317	0.312	0.301	0.318	0.299	0.297	0.348	0.284	0.272	0.327	0.290																																																																																				
713	0.378	0.322	0.318	0.306	0.323	0.304	0.302	0.354	0.288	0.276	0.332	0.294																																																																																				
714	0.386	0.327	0.323	0.311	0.329	0.309	0.307	0.360	0.293	0.280	0.337	0.299																																																																																				
715	0.393	0.333	0.328	0.317	0.335	0.314	0.313	0.366	0.298	0.285	0.343	0.303																																																																																				
716	0.401	0.339	0.334	0.322	0.340	0.320	0.318	0.373	0.302	0.290	0.348	0.308																																																																																				
717	0.408	0.344	0.340	0.327	0.346	0.325	0.324	0.379	0.307	0.295	0.354	0.312																																																																																				
718	0.416	0.350	0.345	0.333	0.352	0.330	0.329	0.385	0.312	0.300	0.360	0.317																																																																																				
719	0.424	0.356	0.352	0.338	0.358	0.336	0.335	0.393	0.317	0.305	0.366	0.321																																																																																				
720	0.432	0.362	0.358	0.344	0.364	0.342	0.340	0.399	0.323	0.310	0.372	0.326																																																																																				
721	0.441	0.369	0.364	0.350	0.371	0.348	0.347	0.407	0.328	0.316	0.379	0.331																																																																																				
722	0.450	0.376	0.371	0.357	0.378	0.355	0.353	0.414	0.334	0.322	0.386	0.337																																																																																				
723	0.459	0.383	0.379	0.363	0.385	0.362	0.360	0.423	0.340	0.327	0.393	0.342																																																																																				
724	0.468	0.390	0.385	0.370	0.392	0.368	0.367	0.430	0.346	0.333	0.400	0.348																																																																																				
725	0.478	0.398	0.393	0.377	0.400	0.375	0.374	0.439	0.353	0.340	0.407	0.354																																																																																				
726	0.487	0.405	0.400	0.384	0.407	0.382	0.381	0.447	0.358	0.345	0.414	0.359																																																																																				
727	0.497	0.413	0.408	0.392	0.415	0.390	0.388	0.456	0.365	0.352	0.422	0.366																																																																																				
728	0.508	0.422	0.417	0.400	0.424	0.398	0.397	0.466	0.373	0.360	0.431	0.373																																																																																				
729	0.519	0.430	0.426	0.408	0.433	0.406	0.405	0.476	0.380	0.367	0.439	0.379																																																																																				
730	0.530	0.439	0.434	0.415	0.441	0.414	0.412	0.485	0.387	0.374	0.448	0.386																																																																																				
731	0.541	0.448	0.443	0.424	0.450	0.423	0.421	0.495	0.395	0.382	0.457	0.393																																																																																				
732	0.552	0.457	0.452	0.432	0.459	0.431	0.429	0.505	0.402	0.389	0.465	0.400																																																																																				
733	0.564	0.466	0.461	0.441	0.468	0.440	0.438	0.515	0.410	0.397	0.474	0.407																																																																																				
734	0.575	0.475	0.470	0.449	0.477	0.448	0.446	0.525	0.418	0.404	0.483	0.414																																																																																				
735	0.587	0.485	0.479	0.458	0.487	0.457	0.455	0.536	0.426	0.412	0.492	0.422																																																																																				
736	0.600	0.495	0.489	0.468	0.497	0.466	0.464	0.548	0.435	0.420	0.503	0.430																																																																																				
737	0.612	0.505	0.500	0.477	0.507	0.476	0.474	0.559	0.444	0.429	0.513	0.438																																																																																				
738	0.625	0.515	0.510	0.487	0.517	0.486	0.483	0.571	0.452	0.437	0.523	0.446																																																																																				
739	0.638	0.526	0.520	0.497	0.528	0.495	0.493	0.582	0.461	0.446	0.533	0.455																																																																																				
740	0.651	0.537	0.531	0.507	0.539	0.505	0.503	0.594	0.470	0.455	0.544	0.463																																																																																				
741	0.664	0.547	0.541	0.516	0.549	0.515	0.513	0.606	0.479	0.464	0.554	0.471																																																																																				
742	0.677	0.558	0.553	0.527	0.560	0.526	0.523	0.619	0.488	0.473	0.565	0.480																																																																																				
743	0.691	0.569	0.564	0.537	0.572	0.536	0.534	0.631	0.498	0.482	0.577	0.489																																																																																				
744	0.705	0.581	0.576	0.548	0.583	0.547	0.545	0.644	0.508	0.492	0.588	0.498																																																																																				
745	0.720	0.593	0.587	0.560	0.595	0.558	0.556	0.658	0.518	0.502	0.600	0.508																																																																																				
746	0.734	0.605	0.599	0.571	0.607	0.569	0.566	0.670	0.528	0.512	0.612	0.517																																																																																				
747	0.749	0.618	0.612	0.583	0.620	0.581	0.578	0.685	0.539	0.522	0.625	0.528																																																																																				
748	0.764	0.631	0.624	0.594	0.632	0.593	0.590	0.699	0.549	0.532	0.637	0.538																																																																																				
749	0.779	0.644	0.637	0.606	0.645	0.605	0.602	0.713	0.561	0.543	0.650	0.548																																																																																				
750	0.795	0.657	0.650	0.619	0.658	0.617	0.614	0.728	0.572	0.554	0.663	0.559																																																																																				
751	0.809	0.670	0.663	0.630	0.671	0.629	0.626	0.742	0.583	0.565	0.676	0.569																																																																																				
752	0.824	0.682	0.675	0.642	0.684	0.641	0.637	0.756	0.594	0.575	0.688	0.579																																																																																				
753	0.839	0.696	0.689	0.654	0.696	0.652	0.649	0.770	0.605	0.586	0.701	0.590																																																																																				
754	0.855	0.709	0.702	0.667	0.710	0.665	0.662	0.786	0.616	0.597	0.715	0.601																																																																																				
755	0.871	0.723	0.715	0.680	0.724	0.678	0.674	0.801	0.628	0.609	0.729	0.613																																																																																				
756	0.887	0.737	0.730	0.693	0.738	0.691	0.687	0.817	0.640	0.620	0.743	0.624																																																																																				
757	0.903	0.751	0.744	0.706	0.752	0.704	0.700	0.832	0.652	0.632	0.756	0.636																																																																																				
758	0.922	0.769	0.760	0.722	0.769	0.720	0.715	0.851	0.666	0.646	0.774	0.650																																																																																				
759	0.939	0.784	0.775	0.735	0.783	0.733	0.729	0.867	0.679	0.658	0.788	0.662																																																																																				
760	0.956	0.799	0.790	0.749	0.799	0.747	0.743	0.884	0.692	0.670	0.804	0.675																																																																																				
761	0.975	0.816	0.806	0.765	0.815	0.762	0.758	0.902	0.707	0.684	0.820	0.689																																																																																				
762	0.993	0.834	0.823	0.781	0.832	0.778	0.773	0.921	0.721	0.698	0.838	0.703																																																																																				
763	1.009	0.848	0.838	0.794	0.847	0.792	0.786	0.937	0.733	0.710	0.853	0.715																																																																																				
764	1.024	0.862	0.851	0.807	0.860	0.804	0.799	0.952	0.745	0.721	0.866	0.727																																																																																				
765	1.037	0.874	0.863	0.818	0.872	0.815	0.809	0.965	0.755	0.731	0.878	0.737																																																																																				
766	1.054	0.889	0.877	0.832	0.887	0.828	0.823	0.982	0.768	0.744	0.893	0.749																																																																																				
767	1.072	0.906	0.894	0.848	0.903	0.844	0.838	1.000	0.782	0.758	0.910	0.763																																																																																				
768	1.090	0.924	0.911	0.864	0.921	0.860	0.854	1.019	0.797	0.772	0.927	0.778																																																																																				
769	1.109	0.941	0.928	0.879	0.938	0.875	0.869	1.038	0.812	0.786	0.945	0.793																																																																																				
770	1.127	0.959	0.945	0.895	0.954	0.891	0.884	1.057	0.827	0.800	0.962	0.808																																																																																				
771	1.144	0.975	0.960	0.910	0.971	0.905	0.899	1.074	0.841	0.813	0.979	0.822																																																																																				
772	1.161	0.992	0.977	0.925	0.987	0.920	0.913	1.092	0.855	0.826	0.995	0.836																																																																																				
773	1.180	1.010	0.994	0.942	1.005	0.936	0.929	1.112	0.871	0.841	1.013	0.852																																																																																				
774	1.197	1.027	1.010	0.958	1.021	0.952	0.944	1.130	0.885	0.855	1.030	0.866																																																																																				
775	1.215	1.044	1.027	0.973	1.038	0.967	0.960	1.148	0.899	0.869	1.048	0.881																																																																																				
776	1.232	1.062	1.044	0.990	1.055	0.982	0.975	1.167	0.914	0.883	1.065	0.896																																																																																				
777	1.250	1.080	1.060	1.006	1.072	0.998	0.990	1.186	0.929	0.897	1.083	0.912																																																																																				
778	1.269	1.099	1.079	1.023	1.090	1.014	1.006	1.206	0.946	0.912	1.101	0.928																																																																																				
779	1.286	1.117	1.096	1.039	1.107	1.030	1.022	1.225	0.961	0.926	1.120	0.944																																																																																				
780	1.305	1.135	1.114	1.056	1.126	1.047	1.037	1.245	0.977	0.941	1.139	0.961																																																																																				
781	1.323	1.154	1.131	1.072	1.143	1.063	1.054	1.264	0.992	0.956	1.157	0.976																																																																																				
782	1.339	1.171	1.147	1.088	1.160	1.077	1.069	1.283	1.007	0.970	1.175	0.992																																																																																				
783	1.357	1.190	1.165	1.105	1.178	1.094	1.084	1.302	1.022	0.985	1.193	1.008																																																																																				
784	1.375	1.209	1.184	1.122	1.196	1.109	1.100	1.323	1.039	1.000	1.212	1.025																																																																																				
785	1.393	1.228	1.201	1.140	1.214	1.127	1.116	1.342	1.055	1.015	1.231	1.043																																																																																				
786	1.411	1.248	1.220	1.157	1.233	1.144	1.133	1.364	1.071	1.030	1.251	1.060																																																																																				
787	1.429	1.267	1.239	1.175	1.252	1.160	1.150	1.384	1.088	1.046	1.271	1.078																																																																																				
788	1.446	1.286	1.256	1.192	1.270	1.176	1.165	1.403	1.104	1.060	1.289	1.095																																																																																				
789	1.462	1.303	1.272	1.208	1.286	1.191	1.180	1.422	1.119	1.075	1.307	1.111																																																																																				
790	1.478	1.321	1.289	1.223	1.303	1.206	1.195	1.440	1.134	1.088	1.324	1.126																																																																																				
791	1.494	1.339	1.306	1.239	1.320	1.222	1.210	1.459	1.149	1.102	1.343	1.143																																																																																				
792	1.513	1.360	1.325	1.258	1.340	1.240	1.227	1.481	1.167	1.119	1.365	1.163																																																																																				
793	1.528	1.378	1.342	1.274	1.356	1.254	1.242	1.499	1.182	1.133	1.382	1.179																																																																																				
794	1.545	1.397	1.359	1.291	1.374	1.270	1.257	1.518	1.198	1.147	1.401	1.197																																																																																				
795	1.561	1.416	1.378	1.308	1.393	1.287	1.273	1.538	1.214	1.162	1.420	1.215																																																																																				
796	1.577	1.434	1.393	1.323	1.409	1.301	1.287	1.555	1.229	1.176	1.437	1.230																																																																																				
797	1.592	1.452	1.410	1.340	1.426	1.316	1.302	1.575	1.245	1.190	1.456	1.248																																																																																				
798	1.607	1.470	1.427	1.356	1.443	1.331	1.317	1.593	1.260	1.204	1.474	1.265																																																																																				
799	1.622	1.488	1.443	1.372	1.460	1.347	1.332	1.612	1.275	1.218	1.493	1.282																																																																																				
800	1.637	1.506	1.460	1.388	1.476	1.361	1.346	1.629	1.291	1.232	1.510	1.299																																																																																				
801	1.653	1.526	1.477	1.405	1.494	1.377	1.362	1.650	1.307	1.247	1.530	1.318																																																																																				
802	1.665	1.542	1.493	1.420	1.510	1.391	1.375	1.667	1.321	1.260	1.547	1.334																																																																																				
803	1.679	1.559	1.508	1.435	1.527	1.405	1.389	1.684	1.336	1.273	1.565	1.351																																																																																				
804	1.694	1.578	1.526	1.451	1.544	1.420	1.403	1.703	1.352	1.287	1.583	1.369																																																																																				
805	1.707	1.595	1.540	1.467	1.559	1.434	1.417	1.719	1.366	1.300	1.601	1.386																																																																																				
806	1.719	1.611	1.555	1.480	1.574	1.447	1.429	1.736	1.379	1.312	1.617	1.401																																																																																				
807	1.732	1.628	1.571	1.495	1.590	1.461	1.443	1.753	1.394	1.325	1.634	1.419																																																																																				
808	1.744	1.644	1.585	1.509	1.604	1.474	1.455	1.768	1.408	1.337	1.650	1.434																																																																																				
809	1.756	1.661	1.600	1.524	1.620	1.486	1.468	1.784	1.422	1.350	1.666	1.450																																																																																				
810	1.768	1.676	1.614	1.537	1.634	1.499	1.480	1.800	1.435	1.362	1.682	1.466																																																																																				
811	1.779	1.693	1.629	1.552	1.649	1.512	1.493	1.816	1.449	1.374	1.699	1.483																																																																																				
812	1.790	1.709	1.644	1.566	1.664	1.525	1.505	1.833	1.463	1.387	1.716	1.499																																																																																				
813	1.802	1.725	1.658	1.580	1.679	1.538	1.518	1.849	1.476	1.399	1.732	1.516																																																																																				
814	1.813	1.740	1.671	1.593	1.693	1.550	1.529	1.863	1.490	1.410	1.747	1.532																																																																																				
815	1.822	1.756	1.685	1.606	1.706	1.562	1.541	1.878	1.502	1.421	1.763	1.548																																																																																				
816	1.834	1.774	1.700	1.621	1.722	1.575	1.553	1.895	1.517	1.434	1.780	1.565																																																																																				
817	1.842	1.787	1.712	1.633	1.735	1.585	1.564	1.909	1.529	1.444	1.795	1.580																																																																																				
818	1.852	1.803	1.726	1.646	1.748	1.598	1.575	1.924	1.542	1.456	1.810	1.596																																																																																				
819	1.862	1.818	1.740	1.660	1.762	1.609	1.586	1.938	1.555	1.467	1.826	1.613																																																																																				
820	1.873	1.836	1.756	1.675	1.779	1.622	1.599	1.956	1.570	1.480	1.845	1.632																																																																																				
821	1.881	1.852	1.770	1.689	1.793	1.635	1.611	1.971	1.583	1.492	1.861	1.649																																																																																				
822	1.889	1.864	1.779	1.699	1.803	1.644	1.619	1.982	1.593	1.500	1.873	1.662																																																																																				
823	1.894	1.873	1.786	1.706	1.811	1.650	1.626	1.990	1.600	1.506	1.882	1.671																																																																																				
824	1.899	1.880	1.793	1.713	1.817	1.655	1.631	1.996	1.607	1.512	1.889	1.679																																																																																				
825	1.905	1.889	1.801	1.721	1.825	1.663	1.638	2.005	1.615	1.519	1.898	1.690																																																																																				
826	1.913	1.905	1.814	1.734	1.839	1.674	1.649	2.019	1.628	1.530	1.914	1.706																																																																																				
827	1.919	1.919	1.826	1.746	1.851	1.684	1.659	2.033	1.640	1.540	1.929	1.723																																																																																				
828	1.925	1.930	1.835	1.755	1.861	1.692	1.666	2.043	1.649	1.548	1.939	1.735																																																																																				
829	1.928	1.938	1.842	1.762	1.868	1.698	1.672	2.050	1.656	1.554	1.949	1.745																																																																																				
830	1.933	1.947	1.850	1.770	1.876	1.705	1.679	2.058	1.664	1.560	1.958	1.756																																																																																				
831	1.938	1.960	1.860	1.780	1.887	1.713	1.687	2.069	1.674	1.569	1.970	1.770																																																																																				
832	1.943	1.974	1.872	1.792	1.899	1.724	1.696	2.083	1.687	1.579	1.985	1.787																																																																																				
833	1.947	1.986	1.881	1.801	1.909	1.731	1.703	2.092	1.696	1.586	1.997	1.802																																																																																				
834	1.950	1.993	1.888	1.807	1.915	1.736	1.708	2.099	1.703	1.592	2.004	1.810																																																																																				
835	1.953	2.000	1.893	1.813	1.921	1.741	1.713	2.106	1.709	1.597	2.012	1.819																																																																																				
836	1.955	2.006	1.899	1.819	1.926	1.746	1.716	2.111	1.714	1.601	2.019	1.828																																																																																				
837	1.957	2.014	1.905	1.825	1.932	1.751	1.721	2.118	1.721	1.606	2.027	1.837																																																																																				
838	1.958	2.022	1.911	1.831	1.939	1.756	1.726	2.124	1.728	1.612	2.036	1.848																																																																																				
839	1.959	2.031	1.917	1.838	1.946	1.760	1.730	2.129	1.734	1.617	2.043	1.859																																																																																				
840	1.960	2.037	1.921	1.843	1.952	1.764	1.733	2.136	1.740	1.621	2.050	1.868																																																																																				
841	1.960	2.042	1.926	1.848	1.955	1.768	1.736	2.139	1.745	1.624	2.057	1.876																																																																																				
842	1.959	2.046	1.928	1.851	1.959	1.771	1.739	2.142	1.749	1.628	2.061	1.884																																																																																				
843	1.960	2.054	1.933	1.855	1.962	1.773	1.742	2.147	1.753	1.630	2.067	1.890																																																																																				
844	1.958	2.058	1.936	1.860	1.966	1.776	1.745	2.151	1.758	1.634	2.072	1.899																																																																																				
845	1.956	2.062	1.940	1.862	1.969	1.778	1.746	2.154	1.762	1.636	2.076	1.907																																																																																				
846	1.954	2.067	1.941	1.865	1.972	1.779	1.747	2.157	1.764	1.638	2.079	1.913																																																																																				
847	1.952	2.068	1.942	1.868	1.975	1.780	1.749	2.159	1.769	1.640	2.084	1.919																																																																																				
848	1.950	2.073	1.946	1.870	1.977	1.781	1.750	2.160	1.770	1.642	2.088	1.925																																																																																				
849	1.946	2.076	1.946	1.871	1.980	1.782	1.750	2.161	1.772	1.643	2.091	1.930																																																																																				
850	1.944	2.076	1.948	1.872	1.980	1.783	1.750	2.163	1.775	1.643	2.094	1.936																																																																																				
851	1.942	2.079	1.950	1.874	1.979	1.784	1.749	2.162	1.776	1.644	2.095	1.940																																																																																				
852	1.938	2.081	1.950	1.875	1.980	1.783	1.750	2.163	1.778	1.645	2.099	1.945																																																																																				
853	1.934	2.081	1.950	1.875	1.982	1.782	1.749	2.162	1.778	1.645	2.100	1.948																																																																																				
854	1.929	2.083	1.947	1.874	1.981	1.781	1.748	2.163	1.778	1.644	2.099	1.952																																																																																				
855	1.926	2.083	1.948	1.875	1.981	1.780	1.746	2.159	1.780	1.643	2.101	1.954																																																																																				
856	1.919	2.082	1.946	1.874	1.979	1.779	1.744	2.159	1.779	1.643	2.100	1.958																																																																																				
857	1.914	2.083	1.945	1.873	1.978	1.777	1.742	2.156	1.779	1.642	2.101	1.961																																																																																				
858	1.909	2.082	1.943	1.872	1.976	1.775	1.740	2.155	1.779	1.640	2.100	1.964																																																																																				
859	1.903	2.081	1.941	1.871	1.973	1.772	1.737	2.152	1.777	1.638	2.099	1.964																																																																																				
860	1.897	2.079	1.939	1.868	1.972	1.769	1.734	2.149	1.775	1.636	2.099	1.966																																																																																				
861	1.891	2.077	1.936	1.866	1.970	1.767	1.731	2.146	1.775	1.635	2.096	1.967																																																																																				
862	1.884	2.075	1.933	1.863	1.967	1.763	1.729	2.143	1.773	1.632	2.095	1.969																																																																																				
863	1.878	2.072	1.931	1.861	1.964	1.760	1.724	2.139	1.770	1.629	2.092	1.968																																																																																				
864	1.870	2.069	1.926	1.857	1.960	1.756	1.720	2.136	1.767	1.626	2.091	1.968																																																																																				
865	1.864	2.067	1.923	1.854	1.956	1.752	1.716	2.130	1.766	1.623	2.087	1.969																																																																																				
866	1.855	2.062	1.919	1.851	1.951	1.748	1.712	2.125	1.762	1.620	2.083	1.968																																																																																				
867	1.849	2.059	1.913	1.846	1.947	1.744	1.708	2.121	1.759	1.615	2.079	1.968																																																																																				
868	1.840	2.054	1.909	1.843	1.943	1.738	1.702	2.115	1.756	1.612	2.075	1.966																																																																																				
869	1.833	2.051	1.903	1.839	1.939	1.733	1.698	2.109	1.752	1.607	2.071	1.965																																																																																				
870	1.823	2.048	1.899	1.834	1.932	1.728	1.693	2.102	1.748	1.604	2.067	1.962																																																																																				
871	1.815	2.041	1.894	1.828	1.927	1.724	1.687	2.096	1.744	1.599	2.062	1.960																																																																																				
872	1.809	2.037	1.888	1.823	1.923	1.717	1.682	2.090	1.740	1.595	2.057	1.957																																																																																				
873	1.799	2.030	1.881	1.818	1.915	1.712	1.675	2.083	1.735	1.589	2.052	1.954																																																																																				
874	1.789	2.025	1.875	1.811	1.909	1.706	1.670	2.076	1.730	1.584	2.046	1.952																																																																																				
875	1.780	2.018	1.869	1.806	1.903	1.699	1.663	2.068	1.724	1.578	2.040	1.947																																																																																				
876	1.770	2.011	1.861	1.799	1.895	1.692	1.656	2.060	1.718	1.571	2.032	1.944																																																																																				
877	1.758	2.002	1.853	1.791	1.887	1.684	1.648	2.050	1.712	1.564	2.025	1.938																																																																																				
878	1.744	1.991	1.842	1.780	1.876	1.673	1.637	2.038	1.702	1.555	2.015	1.930																																																																																				
879	1.729	1.980	1.831	1.770	1.865	1.663	1.626	2.025	1.692	1.546	2.005	1.922																																																																																				
880	1.717	1.972	1.821	1.761	1.856	1.654	1.617	2.016	1.685	1.538	1.996	1.916																																																																																				
881	1.711	1.968	1.817	1.757	1.851	1.650	1.613	2.010	1.681	1.534	1.992	1.914																																																																																				
882	1.707	1.964	1.813	1.754	1.847	1.646	1.610	2.006	1.678	1.531	1.987	1.912																																																																																				
883	1.702	1.960	1.809	1.750	1.843	1.642	1.607	2.001	1.675	1.528	1.984	1.909																																																																																				
884	1.696	1.955	1.804	1.746	1.837	1.637	1.602	1.995	1.671	1.523	1.978	1.905																																																																																				
885	1.686	1.947	1.796	1.738	1.829	1.630	1.594	1.985	1.663	1.516	1.970	1.899																																																																																				
886	1.669	1.932	1.782	1.725	1.816	1.617	1.581	1.970	1.651	1.504	1.956	1.888																																																																																				
887	1.655	1.920	1.771	1.713	1.804	1.605	1.570	1.957	1.642	1.495	1.945	1.879																																																																																				
888	1.643	1.910	1.760	1.704	1.794	1.596	1.560	1.946	1.632	1.486	1.935	1.871																																																																																				
889	1.630	1.900	1.749	1.694	1.783	1.586	1.550	1.934	1.623	1.477	1.924	1.862																																																																																				
890	1.617	1.888	1.738	1.683	1.772	1.576	1.540	1.921	1.613	1.468	1.913	1.853																																																																																				
891	1.604	1.877	1.727	1.673	1.761	1.565	1.530	1.909	1.604	1.458	1.901	1.844																																																																																				
892	1.588	1.863	1.713	1.659	1.747	1.552	1.517	1.893	1.591	1.446	1.887	1.832																																																																																				
893	1.574	1.849	1.700	1.648	1.734	1.541	1.506	1.880	1.580	1.436	1.875	1.821																																																																																				
894	1.563	1.840	1.691	1.638	1.724	1.532	1.496	1.869	1.572	1.428	1.865	1.814																																																																																				
895	1.555	1.832	1.683	1.631	1.717	1.525	1.490	1.860	1.566	1.421	1.857	1.808																																																																																				
896	1.548	1.825	1.677	1.625	1.711	1.519	1.484	1.853	1.560	1.416	1.850	1.802																																																																																				
897	1.539	1.817	1.669	1.617	1.702	1.511	1.476	1.843	1.553	1.409	1.842	1.795																																																																																				
898	1.529	1.806	1.659	1.609	1.693	1.503	1.468	1.833	1.544	1.401	1.831	1.786																																																																																				
899	1.513	1.792	1.646	1.595	1.679	1.490	1.456	1.818	1.533	1.390	1.817	1.775																																																																																				
900	1.498	1.778	1.633	1.583	1.665	1.478	1.443	1.803	1.520	1.378	1.804	1.762																																																																																				
901	1.481	1.761	1.617	1.567	1.649	1.463	1.429	1.786	1.506	1.365	1.787	1.748																																																																																				
902	1.465	1.745	1.602	1.553	1.635	1.450	1.415	1.769	1.492	1.352	1.772	1.734																																																																																				
903	1.452	1.732	1.590	1.541	1.623	1.439	1.405	1.755	1.482	1.342	1.759	1.723																																																																																				
904	1.444	1.725	1.582	1.534	1.615	1.431	1.398	1.746	1.476	1.336	1.751	1.717																																																																																				
905	1.438	1.719	1.577	1.529	1.609	1.427	1.393	1.739	1.470	1.331	1.745	1.712																																																																																				
906	1.431	1.711	1.569	1.522	1.601	1.420	1.387	1.732	1.464	1.325	1.737	1.706																																																																																				
907	1.422	1.702	1.560	1.513	1.592	1.411	1.378	1.721	1.456	1.318	1.727	1.696																																																																																				
908	1.405	1.684	1.544	1.497	1.574	1.397	1.363	1.703	1.441	1.304	1.710	1.681																																																																																				
909	1.389	1.668	1.529	1.484	1.561	1.383	1.350	1.687	1.428	1.292	1.694	1.667																																																																																				
910	1.375	1.654	1.516	1.470	1.547	1.371	1.339	1.672	1.416	1.281	1.680	1.654																																																																																				
911	1.363	1.640	1.503	1.458	1.534	1.359	1.327	1.658	1.403	1.270	1.666	1.642																																																																																				
912	1.346	1.623	1.487	1.443	1.518	1.345	1.313	1.641	1.390	1.256	1.651	1.626																																																																																				
913	1.329	1.607	1.472	1.428	1.502	1.331	1.299	1.623	1.375	1.243	1.633	1.610																																																																																				
914	1.313	1.590	1.457	1.413	1.487	1.317	1.285	1.607	1.362	1.230	1.617	1.596																																																																																				
915	1.305	1.581	1.448	1.405	1.478	1.310	1.277	1.597	1.354	1.223	1.608	1.588																																																																																				
916	1.300	1.575	1.442	1.399	1.472	1.304	1.273	1.590	1.349	1.218	1.601	1.582																																																																																				
917	1.295	1.569	1.437	1.394	1.466	1.299	1.268	1.584	1.344	1.214	1.595	1.577																																																																																				
918	1.289	1.562	1.430	1.388	1.460	1.293	1.262	1.576	1.338	1.208	1.588	1.571																																																																																				
919	1.278	1.550	1.419	1.378	1.449	1.284	1.253	1.564	1.328	1.199	1.576	1.559																																																																																				
920	1.265	1.535	1.406	1.365	1.435	1.271	1.241	1.549	1.315	1.187	1.561	1.546																																																																																				
921	1.249	1.519	1.391	1.350	1.420	1.258	1.227	1.533	1.302	1.175	1.545	1.530																																																																																				
922	1.237	1.505	1.378	1.338	1.407	1.247	1.216	1.519	1.291	1.165	1.532	1.517																																																																																				
923	1.224	1.491	1.365	1.326	1.394	1.235	1.205	1.504	1.278	1.154	1.517	1.504																																																																																				
924	1.213	1.479	1.355	1.314	1.382	1.225	1.194	1.492	1.268	1.144	1.505	1.492																																																																																				
925	1.202	1.466	1.343	1.303	1.370	1.214	1.184	1.478	1.257	1.134	1.492	1.481																																																																																				
926	1.190	1.453	1.331	1.292	1.359	1.204	1.175	1.466	1.247	1.125	1.480	1.469																																																																																				
927	1.179	1.441	1.319	1.281	1.347	1.193	1.165	1.454	1.236	1.115	1.467	1.457																																																																																				
928	1.167	1.427	1.307	1.269	1.335	1.182	1.153	1.440	1.225	1.104	1.454	1.444																																																																																				
929	1.158	1.416	1.297	1.259	1.323	1.173	1.144	1.429	1.215	1.096	1.442	1.433																																																																																				
930	1.148	1.405	1.287	1.249	1.313	1.164	1.135	1.417	1.206	1.087	1.431	1.422																																																																																				
931	1.138	1.393	1.276	1.238	1.303	1.155	1.126	1.405	1.196	1.078	1.420	1.411																																																																																				
932	1.128	1.382	1.266	1.228	1.292	1.145	1.117	1.394	1.186	1.069	1.408	1.399																																																																																				
933	1.117	1.369	1.254	1.217	1.280	1.134	1.106	1.380	1.175	1.059	1.395	1.387																																																																																				
934	1.106	1.357	1.243	1.206	1.270	1.125	1.097	1.369	1.165	1.050	1.383	1.375																																																																																				
935	1.096	1.344	1.232	1.195	1.258	1.114	1.087	1.356	1.154	1.040	1.370	1.362																																																																																				
936	1.087	1.333	1.222	1.186	1.248	1.106	1.078	1.345	1.145	1.032	1.360	1.352																																																																																				
937	1.079	1.323	1.213	1.177	1.239	1.098	1.071	1.335	1.137	1.025	1.350	1.343																																																																																				
938	1.072	1.316	1.206	1.170	1.232	1.091	1.064	1.327	1.130	1.019	1.342	1.334																																																																																				
939	1.065	1.307	1.198	1.162	1.223	1.085	1.058	1.319	1.123	1.012	1.333	1.326																																																																																				
940	1.058	1.297	1.190	1.154	1.215	1.077	1.051	1.309	1.115	1.005	1.323	1.316																																																																																				
941	1.049	1.287	1.181	1.145	1.206	1.069	1.042	1.299	1.106	0.998	1.313	1.306																																																																																				
942	1.040	1.276	1.170	1.135	1.195	1.059	1.033	1.288	1.096	0.989	1.301	1.294																																																																																				
943	1.032	1.266	1.162	1.126	1.187	1.052	1.026	1.278	1.088	0.981	1.292	1.284																																																																																				
944	1.024	1.257	1.153	1.118	1.178	1.045	1.019	1.269	1.080	0.974	1.282	1.275																																																																																				
945	1.018	1.249	1.146	1.111	1.170	1.038	1.012	1.261	1.074	0.968	1.273	1.267																																																																																				
946	1.011	1.239	1.138	1.103	1.162	1.031	1.006	1.252	1.066	0.962	1.264	1.257																																																																																				
947	1.005	1.231	1.131	1.096	1.155	1.025	1.000	1.244	1.059	0.955	1.257	1.249																																																																																				
948	0.998	1.222	1.123	1.089	1.147	1.018	0.993	1.236	1.052	0.949	1.248	1.240																																																																																				
949	0.993	1.215	1.117	1.082	1.141	1.013	0.988	1.229	1.046	0.944	1.240	1.232																																																																																				
950	0.988	1.209	1.112	1.076	1.135	1.008	0.983	1.223	1.040	0.939	1.234	1.226																																																																																				
951	0.985	1.204	1.108	1.072	1.131	1.004	0.980	1.218	1.036	0.935	1.228	1.220																																																																																				
952	0.982	1.200	1.104	1.068	1.126	1.001	0.976	1.214	1.032	0.932	1.224	1.215																																																																																				
953	0.978	1.194	1.099	1.063	1.122	0.997	0.972	1.208	1.028	0.928	1.218	1.209																																																																																				
954	0.974	1.188	1.094	1.058	1.116	0.992	0.968	1.203	1.022	0.924	1.212	1.202																																																																																				
955	0.969	1.181	1.088	1.052	1.111	0.987	0.963	1.196	1.017	0.919	1.205	1.195																																																																																				
956	0.965	1.174	1.083	1.047	1.105	0.983	0.959	1.190	1.012	0.914	1.198	1.187																																																																																				
957	0.959	1.167	1.076	1.040	1.099	0.977	0.953	1.183	1.005	0.909	1.190	1.179																																																																																				
958	0.954	1.159	1.069	1.033	1.091	0.971	0.947	1.176	0.998	0.903	1.183	1.171																																																																																				
959	0.948	1.151	1.062	1.026	1.084	0.965	0.941	1.168	0.992	0.896	1.175	1.163																																																																																				
960	0.941	1.143	1.055	1.019	1.076	0.959	0.935	1.160	0.985	0.890	1.166	1.154																																																																																				
961	0.934	1.134	1.047	1.012	1.069	0.951	0.928	1.151	0.977	0.884	1.157	1.144																																																																																				
962	0.926	1.125	1.039	1.003	1.059	0.943	0.920	1.141	0.969	0.876	1.147	1.135																																																																																				
963	0.919	1.115	1.031	0.995	1.052	0.936	0.913	1.133	0.961	0.870	1.138	1.125																																																																																				
964	0.912	1.105	1.022	0.986	1.043	0.928	0.906	1.123	0.953	0.862	1.128	1.115																																																																																				
965	0.903	1.095	1.013	0.977	1.032	0.920	0.897	1.112	0.944	0.854	1.117	1.104																																																																																				
966	0.895	1.083	1.002	0.967	1.023	0.911	0.889	1.101	0.934	0.846	1.106	1.092																																																																																				
967	0.887	1.074	0.994	0.959	1.014	0.904	0.882	1.092	0.926	0.839	1.097	1.083																																																																																				
968	0.880	1.065	0.985	0.951	1.006	0.896	0.874	1.083	0.919	0.832	1.087	1.073																																																																																				
969	0.873	1.056	0.978	0.943	0.998	0.889	0.868	1.074	0.911	0.825	1.078	1.064																																																																																				
970	0.865	1.046	0.969	0.934	0.988	0.881	0.860	1.064	0.903	0.817	1.068	1.054																																																																																				
971	0.857	1.037	0.960	0.926	0.980	0.874	0.852	1.055	0.894	0.810	1.058	1.045																																																																																				
972	0.850	1.027	0.951	0.917	0.971	0.866	0.845	1.045	0.886	0.803	1.049	1.035																																																																																				
973	0.842	1.017	0.942	0.909	0.962	0.858	0.837	1.035	0.878	0.795	1.038	1.025																																																																																				
974	0.832	1.005	0.932	0.898	0.951	0.848	0.828	1.023	0.868	0.786	1.026	1.012																																																																																				
975	0.822	0.992	0.920	0.887	0.939	0.838	0.817	1.010	0.857	0.777	1.014	0.999																																																																																				
976	0.811	0.978	0.908	0.875	0.927	0.827	0.806	0.997	0.845	0.766	1.000	0.984																																																																																				
977	0.802	0.968	0.898	0.865	0.917	0.818	0.798	0.987	0.836	0.758	0.990	0.973																																																																																				
978	0.796	0.960	0.892	0.859	0.910	0.812	0.792	0.979	0.830	0.752	0.982	0.967																																																																																				
979	0.792	0.956	0.887	0.855	0.905	0.808	0.789	0.974	0.826	0.749	0.977	0.963																																																																																				
980	0.790	0.951	0.883	0.851	0.901	0.805	0.786	0.970	0.823	0.746	0.972	0.958																																																																																				
981	0.787	0.946	0.879	0.847	0.896	0.801	0.782	0.964	0.818	0.742	0.966	0.953																																																																																				
982	0.782	0.940	0.873	0.840	0.889	0.795	0.777	0.957	0.812	0.737	0.959	0.945																																																																																				
983	0.772	0.928	0.862	0.830	0.879	0.786	0.767	0.946	0.802	0.728	0.947	0.932																																																																																				
984	0.759	0.912	0.848	0.816	0.864	0.773	0.754	0.930	0.789	0.716	0.931	0.917																																																																																				
985	0.747	0.898	0.835	0.804	0.852	0.761	0.744	0.916	0.777	0.705	0.918	0.903																																																																																				
986	0.737	0.886	0.824	0.793	0.841	0.752	0.734	0.904	0.767	0.696	0.906	0.891																																																																																				
987	0.727	0.874	0.813	0.782	0.829	0.742	0.724	0.892	0.756	0.686	0.894	0.879																																																																																				
988	0.715	0.859	0.800	0.769	0.817	0.730	0.713	0.878	0.744	0.675	0.879	0.863																																																																																				
989	0.705	0.847	0.789	0.759	0.806	0.720	0.703	0.866	0.734	0.666	0.868	0.851																																																																																				
990	0.696	0.837	0.780	0.750	0.796	0.712	0.694	0.856	0.725	0.658	0.857	0.840																																																																																				
991	0.691	0.830	0.774	0.744	0.790	0.706	0.689	0.849	0.720	0.653	0.850	0.835																																																																																				
992	0.688	0.826	0.770	0.740	0.785	0.703	0.686	0.845	0.716	0.650	0.845	0.831																																																																																				
993	0.686	0.822	0.767	0.737	0.782	0.700	0.684	0.841	0.713	0.647	0.841	0.828																																																																																				
994	0.683	0.817	0.762	0.733	0.777	0.696	0.680	0.836	0.709	0.644	0.836	0.823																																																																																				
995	0.678	0.811	0.756	0.727	0.771	0.691	0.675	0.829	0.703	0.639	0.829	0.815																																																																																				
996	0.670	0.800	0.746	0.718	0.761	0.682	0.666	0.818	0.695	0.631	0.818	0.803																																																																																				
997	0.658	0.787	0.734	0.706	0.749	0.671	0.655	0.805	0.683	0.621	0.805	0.791																																																																																				
998	0.646	0.774	0.722	0.694	0.737	0.660	0.645	0.792	0.672	0.611	0.793	0.778																																																																																				
999	0.637	0.763	0.713	0.685	0.727	0.652	0.636	0.782	0.663	0.602	0.782	0.767																																																																																				

结果
	1	2	3	4	5	6	7	8	9	10	11	12
A	1.960	2.083	1.950	1.875	1.982	1.784	1.750	2.163	1.780	1.645	2.101	1.969	Mean Max OD [Spectrum]
B	?????	?????	?????	?????	?????	?????	?????	?????	?????	?????	?????	?????	Mean Max OD [Spectrum]
C	?????	?????	?????	?????	?????	?????	?????	?????	?????	?????	?????	?????	Mean Max OD [Spectrum]
D	?????	?????	?????	?????	?????	?????	?????	?????	?????	?????	?????	?????	Mean Max OD [Spectrum]
E	?????	?????	?????	?????	?????	?????	?????	?????	?????	?????	?????	?????	Mean Max OD [Spectrum]
F	?????	?????	?????	?????	?????	?????	?????	?????	?????	?????	?????	?????	Mean Max OD [Spectrum]
G	?????	?????	?????	?????	?????	?????	?????	?????	?????	?????	?????	?????	Mean Max OD [Spectrum]
H	?????	?????	?????	?????	?????	?????	?????	?????	?????	?????	?????	?????	Mean Max OD [Spectrum]

