

软件版本	3.11.19



实验文件路径:	
方案文件路径:	



板编号	板 1
日期	2023/4/2
时间	10:06:48
检测仪类型:	Epoch 2
检测仪序列号:	2205170B
检测类型	检测仪

程序详细信息

板类型	96 WELL PLATE
完成后弹出板	
检测	吸收光 光谱
	A1..A12
	开始: 400 nm,  停止: 999 nm,  步骤: 1 nm
	检测前校准
	检测速度: 正常,  延迟: 100 msec,  测量值/数据点: 8

Spectrum

波长	A1	A2	A3	A4	A5	A6	A7	A8	A9	A10	A11	A12	B1	B2	B3	B4	B5	B6	B7	B8	B9	B10	B11	B12	C1	C2	C3	C4	C5	C6	C7	C8	C9	C10	C11	C12	D1	D2	D3	D4	D5	D6	D7	D8	D9	D10	D11	D12	E1	E2	E3	E4	E5	E6	E7	E8	E9	E10	E11	E12	F1	F2	F3	F4	F5	F6	F7	F8	F9	F10	F11	F12	G1	G2	G3	G4	G5	G6	G7	G8	G9	G10	G11	G12	H1	H2	H3	H4	H5	H6	H7	H8	H9	H10	H11	H12
400	0.432	0.508	0.505	0.492	0.535	0.568	0.512	0.463	0.474	0.446	0.475	0.456																																																																																				
401	0.431	0.506	0.504	0.490	0.534	0.567	0.510	0.462	0.473	0.445	0.474	0.455																																																																																				
402	0.430	0.505	0.503	0.489	0.532	0.565	0.509	0.461	0.472	0.444	0.472	0.454																																																																																				
403	0.429	0.504	0.502	0.488	0.531	0.563	0.508	0.460	0.471	0.443	0.471	0.453																																																																																				
404	0.427	0.502	0.500	0.487	0.530	0.562	0.506	0.459	0.469	0.442	0.470	0.452																																																																																				
405	0.426	0.501	0.499	0.485	0.529	0.561	0.505	0.458	0.469	0.441	0.469	0.451																																																																																				
406	0.425	0.500	0.498	0.484	0.527	0.559	0.504	0.457	0.467	0.440	0.468	0.450																																																																																				
407	0.424	0.499	0.497	0.483	0.526	0.558	0.503	0.456	0.466	0.439	0.467	0.449																																																																																				
408	0.423	0.498	0.496	0.482	0.525	0.557	0.502	0.454	0.465	0.438	0.466	0.447																																																																																				
409	0.422	0.497	0.495	0.481	0.524	0.555	0.501	0.454	0.464	0.437	0.465	0.447																																																																																				
410	0.421	0.496	0.494	0.480	0.522	0.554	0.499	0.452	0.463	0.436	0.464	0.445																																																																																				
411	0.420	0.495	0.493	0.479	0.521	0.553	0.498	0.451	0.462	0.435	0.463	0.444																																																																																				
412	0.419	0.493	0.491	0.478	0.520	0.552	0.497	0.450	0.461	0.434	0.461	0.443																																																																																				
413	0.418	0.492	0.490	0.476	0.519	0.550	0.496	0.449	0.460	0.433	0.460	0.442																																																																																				
414	0.417	0.491	0.489	0.475	0.518	0.549	0.495	0.448	0.459	0.431	0.459	0.441																																																																																				
415	0.416	0.490	0.488	0.474	0.516	0.548	0.494	0.447	0.458	0.431	0.458	0.440																																																																																				
416	0.415	0.489	0.487	0.473	0.515	0.547	0.493	0.446	0.457	0.430	0.457	0.439																																																																																				
417	0.414	0.488	0.486	0.472	0.514	0.545	0.492	0.445	0.456	0.429	0.456	0.438																																																																																				
418	0.413	0.487	0.485	0.471	0.513	0.544	0.491	0.444	0.455	0.428	0.455	0.437																																																																																				
419	0.412	0.486	0.484	0.470	0.512	0.543	0.490	0.443	0.454	0.427	0.454	0.436																																																																																				
420	0.411	0.485	0.483	0.469	0.511	0.542	0.489	0.442	0.453	0.426	0.453	0.435																																																																																				
421	0.410	0.484	0.482	0.468	0.510	0.541	0.488	0.441	0.453	0.425	0.453	0.435																																																																																				
422	0.409	0.483	0.482	0.467	0.509	0.540	0.487	0.441	0.452	0.424	0.452	0.434																																																																																				
423	0.409	0.483	0.481	0.467	0.508	0.539	0.486	0.440	0.451	0.424	0.451	0.433																																																																																				
424	0.408	0.482	0.480	0.466	0.507	0.538	0.485	0.439	0.450	0.423	0.450	0.432																																																																																				
425	0.407	0.481	0.479	0.465	0.506	0.537	0.484	0.438	0.449	0.422	0.449	0.431																																																																																				
426	0.406	0.480	0.478	0.464	0.505	0.536	0.483	0.438	0.449	0.421	0.449	0.431																																																																																				
427	0.406	0.479	0.478	0.463	0.505	0.535	0.483	0.437	0.448	0.421	0.448	0.430																																																																																				
428	0.405	0.478	0.477	0.462	0.504	0.534	0.482	0.436	0.447	0.420	0.447	0.429																																																																																				
429	0.404	0.478	0.476	0.462	0.503	0.533	0.481	0.435	0.446	0.419	0.446	0.428																																																																																				
430	0.403	0.477	0.475	0.460	0.502	0.532	0.480	0.434	0.445	0.418	0.445	0.428																																																																																				
431	0.403	0.476	0.474	0.460	0.501	0.531	0.479	0.433	0.445	0.418	0.445	0.427																																																																																				
432	0.402	0.475	0.473	0.459	0.500	0.530	0.478	0.433	0.444	0.417	0.444	0.426																																																																																				
433	0.401	0.474	0.473	0.458	0.499	0.529	0.477	0.432	0.443	0.416	0.443	0.425																																																																																				
434	0.400	0.474	0.472	0.457	0.498	0.528	0.477	0.431	0.442	0.415	0.442	0.425																																																																																				
435	0.400	0.473	0.471	0.457	0.497	0.527	0.476	0.430	0.442	0.415	0.442	0.424																																																																																				
436	0.399	0.472	0.470	0.456	0.496	0.526	0.475	0.429	0.441	0.414	0.441	0.423																																																																																				
437	0.398	0.471	0.469	0.455	0.496	0.526	0.474	0.429	0.440	0.413	0.440	0.422																																																																																				
438	0.398	0.470	0.468	0.454	0.495	0.524	0.473	0.428	0.439	0.412	0.439	0.421																																																																																				
439	0.397	0.470	0.468	0.454	0.494	0.524	0.473	0.427	0.438	0.412	0.439	0.421																																																																																				
440	0.397	0.469	0.467	0.453	0.493	0.523	0.472	0.427	0.438	0.411	0.438	0.420																																																																																				
441	0.396	0.469	0.466	0.452	0.492	0.522	0.471	0.426	0.437	0.411	0.437	0.420																																																																																				
442	0.395	0.468	0.465	0.452	0.492	0.522	0.471	0.425	0.436	0.410	0.437	0.419																																																																																				
443	0.395	0.467	0.465	0.451	0.491	0.521	0.470	0.425	0.436	0.409	0.436	0.418																																																																																				
444	0.395	0.467	0.464	0.450	0.490	0.520	0.469	0.424	0.435	0.409	0.435	0.418																																																																																				
445	0.394	0.466	0.463	0.449	0.490	0.519	0.469	0.423	0.434	0.408	0.435	0.417																																																																																				
446	0.394	0.466	0.463	0.449	0.489	0.519	0.468	0.423	0.434	0.408	0.434	0.417																																																																																				
447	0.393	0.465	0.462	0.448	0.488	0.518	0.467	0.422	0.434	0.407	0.433	0.416																																																																																				
448	0.393	0.465	0.462	0.448	0.488	0.517	0.467	0.422	0.433	0.407	0.433	0.416																																																																																				
449	0.392	0.464	0.461	0.447	0.487	0.517	0.466	0.421	0.432	0.406	0.432	0.415																																																																																				
450	0.392	0.464	0.461	0.447	0.487	0.516	0.466	0.421	0.432	0.406	0.432	0.415																																																																																				
451	0.392	0.463	0.460	0.446	0.486	0.516	0.465	0.420	0.431	0.405	0.431	0.414																																																																																				
452	0.391	0.463	0.460	0.446	0.485	0.515	0.465	0.420	0.431	0.405	0.431	0.414																																																																																				
453	0.391	0.462	0.459	0.445	0.485	0.515	0.464	0.419	0.431	0.404	0.431	0.413																																																																																				
454	0.391	0.462	0.459	0.445	0.485	0.514	0.464	0.419	0.430	0.404	0.430	0.413																																																																																				
455	0.391	0.462	0.458	0.444	0.484	0.514	0.463	0.419	0.430	0.404	0.430	0.412																																																																																				
456	0.391	0.462	0.458	0.444	0.484	0.513	0.463	0.418	0.429	0.403	0.429	0.412																																																																																				
457	0.391	0.461	0.458	0.444	0.483	0.513	0.463	0.418	0.429	0.403	0.429	0.412																																																																																				
458	0.391	0.461	0.458	0.444	0.483	0.513	0.462	0.418	0.429	0.403	0.429	0.411																																																																																				
459	0.390	0.461	0.457	0.443	0.483	0.512	0.462	0.417	0.429	0.403	0.429	0.411																																																																																				
460	0.391	0.461	0.457	0.443	0.483	0.512	0.462	0.417	0.429	0.402	0.428	0.411																																																																																				
461	0.391	0.461	0.457	0.443	0.483	0.512	0.462	0.417	0.429	0.402	0.428	0.411																																																																																				
462	0.391	0.461	0.457	0.443	0.483	0.512	0.462	0.417	0.428	0.402	0.428	0.411																																																																																				
463	0.391	0.461	0.457	0.443	0.482	0.512	0.462	0.417	0.428	0.402	0.428	0.411																																																																																				
464	0.391	0.462	0.457	0.443	0.483	0.512	0.462	0.417	0.428	0.402	0.428	0.411																																																																																				
465	0.392	0.462	0.457	0.443	0.483	0.512	0.462	0.417	0.428	0.402	0.428	0.411																																																																																				
466	0.392	0.462	0.457	0.443	0.483	0.513	0.462	0.417	0.429	0.402	0.429	0.411																																																																																				
467	0.392	0.462	0.457	0.443	0.483	0.513	0.462	0.417	0.429	0.403	0.429	0.411																																																																																				
468	0.393	0.463	0.458	0.444	0.483	0.513	0.462	0.418	0.429	0.403	0.429	0.411																																																																																				
469	0.393	0.464	0.458	0.444	0.484	0.514	0.463	0.418	0.429	0.403	0.429	0.412																																																																																				
470	0.394	0.464	0.459	0.445	0.484	0.514	0.463	0.418	0.430	0.404	0.430	0.412																																																																																				
471	0.395	0.465	0.459	0.445	0.485	0.515	0.464	0.419	0.430	0.404	0.430	0.412																																																																																				
472	0.396	0.466	0.460	0.446	0.485	0.515	0.464	0.419	0.431	0.404	0.431	0.413																																																																																				
473	0.397	0.467	0.461	0.446	0.486	0.516	0.465	0.420	0.431	0.405	0.431	0.414																																																																																				
474	0.398	0.468	0.462	0.447	0.487	0.517	0.466	0.421	0.432	0.406	0.432	0.414																																																																																				
475	0.399	0.469	0.463	0.448	0.488	0.519	0.467	0.421	0.433	0.407	0.433	0.415																																																																																				
476	0.400	0.470	0.464	0.449	0.489	0.520	0.468	0.422	0.434	0.408	0.434	0.416																																																																																				
477	0.402	0.472	0.465	0.450	0.491	0.521	0.469	0.423	0.435	0.409	0.435	0.417																																																																																				
478	0.403	0.474	0.466	0.452	0.492	0.523	0.470	0.425	0.437	0.410	0.437	0.419																																																																																				
479	0.405	0.476	0.468	0.454	0.494	0.525	0.472	0.426	0.438	0.411	0.438	0.420																																																																																				
480	0.407	0.478	0.470	0.455	0.496	0.527	0.474	0.428	0.440	0.413	0.440	0.422																																																																																				
481	0.410	0.480	0.472	0.457	0.498	0.530	0.476	0.430	0.442	0.415	0.442	0.424																																																																																				
482	0.412	0.483	0.475	0.460	0.501	0.533	0.478	0.432	0.444	0.417	0.444	0.426																																																																																				
483	0.414	0.486	0.476	0.462	0.503	0.535	0.480	0.434	0.446	0.419	0.446	0.427																																																																																				
484	0.417	0.488	0.479	0.464	0.505	0.537	0.482	0.436	0.448	0.421	0.448	0.429																																																																																				
485	0.419	0.490	0.481	0.466	0.508	0.540	0.484	0.438	0.450	0.422	0.450	0.431																																																																																				
486	0.422	0.494	0.484	0.469	0.511	0.543	0.487	0.440	0.453	0.425	0.452	0.433																																																																																				
487	0.425	0.498	0.487	0.472	0.514	0.547	0.491	0.443	0.456	0.428	0.456	0.437																																																																																				
488	0.429	0.502	0.490	0.475	0.518	0.551	0.494	0.446	0.459	0.431	0.459	0.439																																																																																				
489	0.432	0.505	0.494	0.478	0.521	0.554	0.497	0.449	0.462	0.433	0.462	0.442																																																																																				
490	0.436	0.510	0.498	0.482	0.526	0.559	0.501	0.453	0.465	0.437	0.465	0.446																																																																																				
491	0.441	0.515	0.502	0.487	0.530	0.565	0.505	0.457	0.470	0.441	0.470	0.450																																																																																				
492	0.445	0.520	0.506	0.490	0.534	0.569	0.509	0.460	0.473	0.444	0.473	0.453																																																																																				
493	0.449	0.524	0.510	0.494	0.539	0.573	0.513	0.464	0.477	0.448	0.477	0.456																																																																																				
494	0.454	0.530	0.515	0.498	0.543	0.579	0.517	0.468	0.481	0.452	0.481	0.460																																																																																				
495	0.460	0.537	0.520	0.504	0.550	0.585	0.523	0.473	0.486	0.456	0.486	0.465																																																																																				
496	0.466	0.544	0.526	0.510	0.556	0.592	0.529	0.478	0.491	0.462	0.491	0.470																																																																																				
497	0.472	0.551	0.532	0.516	0.562	0.599	0.534	0.483	0.497	0.467	0.497	0.475																																																																																				
498	0.477	0.556	0.536	0.520	0.567	0.604	0.538	0.487	0.500	0.470	0.500	0.479																																																																																				
499	0.482	0.562	0.541	0.524	0.572	0.610	0.543	0.491	0.505	0.474	0.505	0.483																																																																																				
500	0.488	0.568	0.546	0.529	0.577	0.615	0.548	0.495	0.510	0.479	0.509	0.487																																																																																				
501	0.494	0.575	0.552	0.535	0.583	0.622	0.553	0.500	0.514	0.483	0.514	0.491																																																																																				
502	0.500	0.581	0.557	0.540	0.589	0.628	0.558	0.505	0.519	0.488	0.519	0.496																																																																																				
503	0.506	0.588	0.562	0.545	0.594	0.633	0.563	0.509	0.524	0.492	0.524	0.500																																																																																				
504	0.513	0.595	0.568	0.550	0.600	0.640	0.568	0.514	0.529	0.497	0.529	0.505																																																																																				
505	0.518	0.601	0.572	0.555	0.604	0.645	0.573	0.518	0.533	0.500	0.532	0.508																																																																																				
506	0.524	0.608	0.577	0.559	0.609	0.651	0.577	0.522	0.537	0.504	0.537	0.512																																																																																				
507	0.530	0.614	0.581	0.564	0.614	0.655	0.581	0.525	0.540	0.508	0.540	0.516																																																																																				
508	0.535	0.619	0.585	0.567	0.618	0.660	0.585	0.528	0.544	0.511	0.544	0.519																																																																																				
509	0.541	0.625	0.589	0.571	0.622	0.664	0.589	0.531	0.547	0.514	0.547	0.522																																																																																				
510	0.546	0.630	0.592	0.574	0.625	0.668	0.592	0.534	0.550	0.517	0.550	0.524																																																																																				
511	0.551	0.634	0.595	0.577	0.628	0.672	0.594	0.536	0.552	0.519	0.552	0.526																																																																																				
512	0.555	0.639	0.597	0.579	0.631	0.674	0.596	0.538	0.554	0.521	0.554	0.528																																																																																				
513	0.559	0.642	0.599	0.581	0.632	0.676	0.598	0.539	0.555	0.522	0.555	0.529																																																																																				
514	0.563	0.645	0.600	0.582	0.634	0.678	0.599	0.540	0.556	0.523	0.556	0.530																																																																																				
515	0.566	0.648	0.601	0.583	0.635	0.679	0.600	0.541	0.557	0.524	0.557	0.530																																																																																				
516	0.569	0.650	0.601	0.583	0.635	0.679	0.600	0.541	0.557	0.524	0.557	0.530																																																																																				
517	0.571	0.651	0.601	0.583	0.635	0.679	0.600	0.540	0.556	0.524	0.556	0.530																																																																																				
518	0.573	0.652	0.601	0.583	0.634	0.679	0.599	0.540	0.556	0.523	0.556	0.529																																																																																				
519	0.574	0.653	0.600	0.582	0.633	0.678	0.598	0.539	0.555	0.522	0.555	0.528																																																																																				
520	0.575	0.653	0.599	0.581	0.632	0.677	0.597	0.537	0.554	0.521	0.554	0.527																																																																																				
521	0.576	0.653	0.597	0.579	0.630	0.675	0.595	0.536	0.552	0.520	0.552	0.525																																																																																				
522	0.577	0.652	0.595	0.577	0.628	0.673	0.593	0.534	0.550	0.518	0.550	0.523																																																																																				
523	0.577	0.651	0.592	0.575	0.626	0.670	0.590	0.531	0.547	0.515	0.547	0.520																																																																																				
524	0.577	0.650	0.589	0.572	0.623	0.667	0.587	0.528	0.544	0.512	0.544	0.517																																																																																				
525	0.576	0.648	0.586	0.569	0.619	0.663	0.584	0.525	0.541	0.509	0.541	0.514																																																																																				
526	0.575	0.646	0.583	0.566	0.616	0.659	0.581	0.522	0.538	0.507	0.538	0.511																																																																																				
527	0.574	0.643	0.579	0.562	0.612	0.655	0.577	0.518	0.534	0.503	0.534	0.507																																																																																				
528	0.574	0.641	0.576	0.560	0.609	0.652	0.574	0.516	0.531	0.501	0.531	0.505																																																																																				
529	0.573	0.639	0.573	0.557	0.605	0.649	0.571	0.513	0.528	0.498	0.528	0.502																																																																																				
530	0.572	0.636	0.570	0.554	0.602	0.645	0.568	0.510	0.526	0.495	0.525	0.499																																																																																				
531	0.570	0.633	0.566	0.550	0.598	0.641	0.564	0.506	0.522	0.492	0.522	0.495																																																																																				
532	0.569	0.630	0.561	0.545	0.593	0.636	0.559	0.502	0.517	0.487	0.517	0.491																																																																																				
533	0.567	0.626	0.557	0.541	0.588	0.630	0.555	0.498	0.513	0.483	0.513	0.487																																																																																				
534	0.566	0.623	0.553	0.537	0.584	0.626	0.551	0.494	0.509	0.480	0.509	0.484																																																																																				
535	0.564	0.620	0.549	0.533	0.580	0.622	0.547	0.490	0.505	0.477	0.505	0.480																																																																																				
536	0.563	0.617	0.545	0.529	0.575	0.617	0.543	0.486	0.501	0.473	0.501	0.476																																																																																				
537	0.562	0.613	0.540	0.525	0.571	0.612	0.538	0.483	0.497	0.469	0.497	0.472																																																																																				
538	0.560	0.610	0.536	0.521	0.566	0.607	0.534	0.478	0.493	0.465	0.493	0.468																																																																																				
539	0.559	0.606	0.532	0.517	0.562	0.603	0.530	0.475	0.489	0.461	0.489	0.464																																																																																				
540	0.558	0.603	0.527	0.513	0.557	0.598	0.525	0.471	0.485	0.457	0.484	0.460																																																																																				
541	0.558	0.600	0.524	0.509	0.553	0.594	0.522	0.467	0.481	0.454	0.481	0.457																																																																																				
542	0.557	0.598	0.521	0.506	0.549	0.590	0.518	0.464	0.478	0.452	0.478	0.454																																																																																				
543	0.557	0.595	0.518	0.503	0.546	0.587	0.515	0.461	0.475	0.449	0.475	0.451																																																																																				
544	0.557	0.592	0.514	0.499	0.542	0.583	0.512	0.458	0.472	0.446	0.471	0.448																																																																																				
545	0.556	0.589	0.511	0.496	0.538	0.579	0.508	0.455	0.468	0.442	0.468	0.445																																																																																				
546	0.557	0.587	0.507	0.492	0.534	0.575	0.504	0.451	0.465	0.439	0.464	0.441																																																																																				
547	0.557	0.585	0.504	0.489	0.531	0.571	0.501	0.448	0.462	0.436	0.461	0.439																																																																																				
548	0.558	0.583	0.501	0.486	0.527	0.568	0.498	0.446	0.459	0.434	0.459	0.436																																																																																				
549	0.558	0.581	0.499	0.484	0.524	0.565	0.495	0.443	0.457	0.431	0.456	0.433																																																																																				
550	0.560	0.579	0.496	0.481	0.521	0.562	0.492	0.441	0.454	0.429	0.453	0.431																																																																																				
551	0.561	0.578	0.494	0.479	0.519	0.560	0.490	0.439	0.452	0.427	0.451	0.429																																																																																				
552	0.562	0.577	0.492	0.476	0.516	0.557	0.487	0.436	0.449	0.425	0.448	0.427																																																																																				
553	0.564	0.576	0.490	0.474	0.514	0.555	0.485	0.434	0.447	0.423	0.446	0.425																																																																																				
554	0.566	0.575	0.488	0.472	0.511	0.553	0.483	0.433	0.445	0.421	0.445	0.423																																																																																				
555	0.568	0.574	0.487	0.471	0.510	0.551	0.482	0.431	0.444	0.420	0.443	0.421																																																																																				
556	0.570	0.574	0.486	0.469	0.508	0.550	0.480	0.430	0.442	0.418	0.441	0.420																																																																																				
557	0.573	0.574	0.485	0.468	0.506	0.549	0.479	0.429	0.441	0.417	0.440	0.419																																																																																				
558	0.576	0.574	0.484	0.467	0.505	0.548	0.477	0.427	0.440	0.417	0.439	0.418																																																																																				
559	0.579	0.575	0.483	0.466	0.504	0.547	0.477	0.427	0.439	0.416	0.438	0.417																																																																																				
560	0.583	0.576	0.483	0.466	0.503	0.547	0.476	0.426	0.438	0.415	0.437	0.416																																																																																				
561	0.586	0.577	0.483	0.466	0.503	0.547	0.476	0.426	0.438	0.415	0.437	0.416																																																																																				
562	0.589	0.578	0.483	0.466	0.503	0.547	0.475	0.426	0.438	0.415	0.437	0.416																																																																																				
563	0.592	0.579	0.484	0.466	0.503	0.548	0.476	0.426	0.438	0.415	0.437	0.416																																																																																				
564	0.596	0.581	0.485	0.467	0.503	0.549	0.476	0.426	0.438	0.416	0.437	0.416																																																																																				
565	0.600	0.584	0.486	0.467	0.504	0.550	0.477	0.427	0.439	0.417	0.438	0.417																																																																																				
566	0.604	0.586	0.488	0.468	0.505	0.552	0.477	0.428	0.440	0.417	0.439	0.418																																																																																				
567	0.608	0.589	0.489	0.470	0.506	0.554	0.479	0.429	0.441	0.419	0.440	0.419																																																																																				
568	0.612	0.592	0.491	0.471	0.507	0.556	0.480	0.430	0.442	0.420	0.441	0.420																																																																																				
569	0.616	0.595	0.493	0.473	0.509	0.558	0.481	0.432	0.443	0.421	0.442	0.421																																																																																				
570	0.620	0.598	0.496	0.475	0.511	0.561	0.483	0.433	0.445	0.423	0.444	0.423																																																																																				
571	0.624	0.602	0.499	0.478	0.514	0.565	0.486	0.435	0.447	0.425	0.446	0.425																																																																																				
572	0.628	0.607	0.502	0.481	0.517	0.568	0.488	0.438	0.449	0.428	0.449	0.427																																																																																				
573	0.632	0.611	0.505	0.483	0.519	0.572	0.491	0.440	0.452	0.430	0.451	0.429																																																																																				
574	0.636	0.615	0.509	0.486	0.523	0.576	0.494	0.443	0.454	0.433	0.454	0.432																																																																																				
575	0.640	0.620	0.513	0.490	0.526	0.581	0.497	0.446	0.458	0.436	0.457	0.435																																																																																				
576	0.643	0.625	0.517	0.493	0.530	0.585	0.500	0.449	0.460	0.439	0.460	0.438																																																																																				
577	0.647	0.629	0.521	0.497	0.534	0.590	0.504	0.452	0.464	0.442	0.463	0.441																																																																																				
578	0.650	0.635	0.526	0.502	0.538	0.595	0.508	0.456	0.468	0.446	0.467	0.444																																																																																				
579	0.654	0.641	0.531	0.506	0.543	0.602	0.513	0.460	0.472	0.451	0.471	0.448																																																																																				
580	0.658	0.647	0.537	0.512	0.548	0.608	0.518	0.464	0.476	0.455	0.476	0.452																																																																																				
581	0.661	0.653	0.542	0.517	0.554	0.614	0.523	0.469	0.481	0.459	0.480	0.456																																																																																				
582	0.663	0.660	0.548	0.522	0.559	0.621	0.527	0.473	0.485	0.464	0.485	0.461																																																																																				
583	0.666	0.666	0.555	0.528	0.566	0.628	0.533	0.478	0.491	0.469	0.490	0.466																																																																																				
584	0.669	0.674	0.562	0.535	0.572	0.637	0.540	0.484	0.496	0.475	0.496	0.471																																																																																				
585	0.671	0.681	0.569	0.541	0.579	0.645	0.546	0.489	0.502	0.480	0.502	0.476																																																																																				
586	0.673	0.689	0.576	0.548	0.587	0.653	0.553	0.495	0.508	0.486	0.508	0.482																																																																																				
587	0.674	0.696	0.584	0.556	0.594	0.662	0.560	0.502	0.515	0.493	0.514	0.488																																																																																				
588	0.676	0.703	0.592	0.563	0.602	0.671	0.566	0.508	0.521	0.499	0.521	0.494																																																																																				
589	0.676	0.711	0.599	0.570	0.609	0.680	0.574	0.514	0.527	0.505	0.527	0.500																																																																																				
590	0.677	0.718	0.608	0.577	0.617	0.689	0.581	0.520	0.534	0.512	0.534	0.506																																																																																				
591	0.677	0.726	0.616	0.586	0.626	0.699	0.589	0.527	0.541	0.519	0.541	0.512																																																																																				
592	0.677	0.733	0.624	0.592	0.633	0.708	0.595	0.533	0.548	0.525	0.548	0.518																																																																																				
593	0.677	0.741	0.632	0.601	0.642	0.717	0.603	0.540	0.555	0.532	0.555	0.525																																																																																				
594	0.676	0.749	0.641	0.609	0.651	0.728	0.612	0.548	0.563	0.539	0.563	0.532																																																																																				
595	0.675	0.757	0.651	0.619	0.661	0.739	0.621	0.556	0.571	0.547	0.571	0.540																																																																																				
596	0.673	0.764	0.660	0.627	0.670	0.749	0.629	0.563	0.579	0.555	0.579	0.547																																																																																				
597	0.672	0.771	0.668	0.635	0.679	0.759	0.637	0.570	0.586	0.562	0.586	0.553																																																																																				
598	0.669	0.779	0.677	0.644	0.688	0.769	0.646	0.577	0.594	0.569	0.594	0.560																																																																																				
599	0.667	0.786	0.687	0.653	0.698	0.780	0.655	0.585	0.602	0.577	0.602	0.568																																																																																				
600	0.664	0.794	0.697	0.663	0.709	0.792	0.664	0.594	0.611	0.586	0.611	0.576																																																																																				
601	0.660	0.803	0.708	0.674	0.721	0.805	0.675	0.603	0.621	0.595	0.621	0.585																																																																																				
602	0.656	0.811	0.719	0.684	0.732	0.817	0.686	0.612	0.630	0.604	0.631	0.594																																																																																				
603	0.653	0.818	0.728	0.694	0.742	0.828	0.694	0.620	0.638	0.612	0.639	0.601																																																																																				
604	0.648	0.825	0.738	0.703	0.752	0.839	0.704	0.628	0.647	0.620	0.648	0.609																																																																																				
605	0.644	0.831	0.746	0.712	0.761	0.849	0.712	0.635	0.654	0.627	0.655	0.616																																																																																				
606	0.640	0.838	0.756	0.721	0.771	0.859	0.721	0.643	0.663	0.635	0.664	0.623																																																																																				
607	0.635	0.844	0.765	0.729	0.781	0.870	0.730	0.651	0.671	0.643	0.672	0.631																																																																																				
608	0.629	0.851	0.776	0.740	0.793	0.882	0.741	0.660	0.681	0.652	0.682	0.640																																																																																				
609	0.623	0.857	0.785	0.750	0.803	0.893	0.750	0.668	0.689	0.660	0.690	0.647																																																																																				
610	0.618	0.862	0.793	0.758	0.812	0.902	0.759	0.675	0.697	0.667	0.698	0.654																																																																																				
611	0.613	0.867	0.801	0.766	0.822	0.912	0.767	0.683	0.704	0.674	0.706	0.661																																																																																				
612	0.606	0.872	0.810	0.775	0.832	0.922	0.776	0.691	0.713	0.682	0.714	0.668																																																																																				
613	0.600	0.877	0.819	0.784	0.842	0.932	0.785	0.698	0.721	0.690	0.723	0.676																																																																																				
614	0.592	0.882	0.828	0.794	0.852	0.942	0.794	0.706	0.730	0.698	0.731	0.683																																																																																				
615	0.585	0.886	0.836	0.802	0.862	0.952	0.803	0.714	0.737	0.705	0.739	0.691																																																																																				
616	0.578	0.890	0.844	0.811	0.872	0.961	0.812	0.721	0.746	0.713	0.747	0.698																																																																																				
617	0.571	0.893	0.852	0.819	0.881	0.970	0.820	0.728	0.753	0.719	0.755	0.705																																																																																				
618	0.563	0.896	0.859	0.827	0.890	0.978	0.828	0.735	0.760	0.726	0.762	0.711																																																																																				
619	0.556	0.899	0.866	0.834	0.898	0.985	0.835	0.741	0.767	0.732	0.769	0.717																																																																																				
620	0.547	0.901	0.873	0.842	0.907	0.994	0.844	0.749	0.774	0.739	0.777	0.724																																																																																				
621	0.539	0.903	0.879	0.849	0.916	1.001	0.851	0.755	0.781	0.745	0.784	0.730																																																																																				
622	0.532	0.905	0.886	0.856	0.924	1.008	0.858	0.761	0.788	0.750	0.790	0.736																																																																																				
623	0.523	0.905	0.891	0.862	0.931	1.014	0.865	0.766	0.794	0.756	0.796	0.741																																																																																				
624	0.515	0.906	0.896	0.868	0.938	1.020	0.871	0.771	0.799	0.761	0.802	0.746																																																																																				
625	0.507	0.905	0.901	0.873	0.945	1.025	0.877	0.776	0.805	0.765	0.808	0.751																																																																																				
626	0.500	0.905	0.905	0.878	0.951	1.030	0.883	0.781	0.810	0.770	0.813	0.756																																																																																				
627	0.491	0.904	0.909	0.883	0.957	1.034	0.888	0.786	0.815	0.774	0.818	0.760																																																																																				
628	0.484	0.902	0.913	0.887	0.962	1.038	0.893	0.790	0.819	0.778	0.822	0.764																																																																																				
629	0.476	0.900	0.915	0.891	0.967	1.041	0.898	0.793	0.823	0.781	0.827	0.768																																																																																				
630	0.468	0.898	0.918	0.894	0.972	1.044	0.902	0.797	0.827	0.784	0.831	0.771																																																																																				
631	0.461	0.895	0.920	0.897	0.976	1.046	0.905	0.800	0.831	0.787	0.834	0.775																																																																																				
632	0.453	0.892	0.922	0.900	0.980	1.048	0.909	0.803	0.834	0.790	0.838	0.778																																																																																				
633	0.445	0.888	0.924	0.903	0.983	1.050	0.912	0.806	0.837	0.792	0.841	0.781																																																																																				
634	0.438	0.884	0.925	0.905	0.986	1.051	0.915	0.809	0.840	0.794	0.844	0.783																																																																																				
635	0.430	0.878	0.926	0.906	0.989	1.052	0.918	0.811	0.843	0.796	0.847	0.786																																																																																				
636	0.423	0.874	0.927	0.908	0.991	1.053	0.920	0.813	0.845	0.798	0.849	0.788																																																																																				
637	0.415	0.869	0.927	0.909	0.993	1.052	0.922	0.815	0.847	0.799	0.851	0.790																																																																																				
638	0.408	0.862	0.927	0.910	0.995	1.052	0.924	0.816	0.849	0.800	0.853	0.792																																																																																				
639	0.401	0.856	0.926	0.910	0.996	1.052	0.925	0.817	0.850	0.801	0.855	0.794																																																																																				
640	0.393	0.850	0.926	0.910	0.997	1.050	0.926	0.819	0.852	0.802	0.856	0.795																																																																																				
641	0.386	0.843	0.925	0.910	0.998	1.049	0.927	0.820	0.853	0.802	0.857	0.797																																																																																				
642	0.379	0.835	0.923	0.909	0.998	1.047	0.927	0.820	0.854	0.802	0.858	0.798																																																																																				
643	0.373	0.828	0.922	0.908	0.998	1.045	0.928	0.821	0.855	0.803	0.859	0.799																																																																																				
644	0.366	0.820	0.920	0.907	0.997	1.043	0.927	0.821	0.855	0.802	0.859	0.799																																																																																				
645	0.359	0.812	0.918	0.905	0.997	1.040	0.927	0.821	0.855	0.802	0.860	0.800																																																																																				
646	0.353	0.804	0.916	0.904	0.996	1.037	0.927	0.821	0.855	0.801	0.860	0.800																																																																																				
647	0.346	0.796	0.913	0.902	0.994	1.033	0.926	0.821	0.855	0.800	0.859	0.801																																																																																				
648	0.340	0.787	0.910	0.899	0.993	1.030	0.925	0.821	0.855	0.799	0.859	0.801																																																																																				
649	0.334	0.778	0.907	0.897	0.990	1.026	0.923	0.820	0.854	0.798	0.859	0.801																																																																																				
650	0.328	0.769	0.904	0.894	0.988	1.022	0.922	0.819	0.853	0.797	0.858	0.801																																																																																				
651	0.322	0.760	0.901	0.891	0.986	1.017	0.920	0.819	0.852	0.795	0.857	0.800																																																																																				
652	0.317	0.752	0.898	0.888	0.983	1.013	0.918	0.818	0.851	0.794	0.856	0.800																																																																																				
653	0.311	0.743	0.895	0.884	0.980	1.009	0.916	0.817	0.850	0.792	0.854	0.800																																																																																				
654	0.306	0.734	0.891	0.881	0.977	1.004	0.914	0.815	0.849	0.790	0.853	0.799																																																																																				
655	0.300	0.725	0.887	0.877	0.973	0.998	0.911	0.814	0.847	0.787	0.851	0.798																																																																																				
656	0.295	0.715	0.882	0.873	0.970	0.993	0.908	0.812	0.845	0.785	0.849	0.797																																																																																				
657	0.290	0.706	0.878	0.868	0.965	0.987	0.905	0.811	0.843	0.782	0.847	0.796																																																																																				
658	0.285	0.697	0.874	0.864	0.961	0.981	0.902	0.809	0.841	0.780	0.844	0.795																																																																																				
659	0.280	0.687	0.869	0.859	0.957	0.976	0.898	0.807	0.839	0.777	0.842	0.793																																																																																				
660	0.276	0.679	0.864	0.855	0.953	0.969	0.895	0.805	0.837	0.774	0.839	0.792																																																																																				
661	0.271	0.669	0.859	0.849	0.947	0.963	0.891	0.803	0.834	0.770	0.836	0.790																																																																																				
662	0.266	0.659	0.854	0.844	0.942	0.957	0.887	0.800	0.831	0.767	0.833	0.788																																																																																				
663	0.262	0.651	0.849	0.839	0.937	0.950	0.883	0.798	0.828	0.764	0.830	0.786																																																																																				
664	0.258	0.641	0.843	0.833	0.932	0.943	0.878	0.795	0.825	0.760	0.826	0.784																																																																																				
665	0.254	0.632	0.838	0.828	0.926	0.937	0.874	0.792	0.822	0.756	0.823	0.782																																																																																				
666	0.250	0.624	0.833	0.822	0.920	0.930	0.869	0.789	0.818	0.752	0.819	0.780																																																																																				
667	0.245	0.614	0.827	0.816	0.914	0.922	0.864	0.786	0.814	0.748	0.815	0.777																																																																																				
668	0.241	0.604	0.820	0.809	0.907	0.914	0.858	0.783	0.810	0.744	0.810	0.774																																																																																				
669	0.237	0.595	0.814	0.803	0.901	0.906	0.853	0.779	0.806	0.739	0.806	0.771																																																																																				
670	0.234	0.586	0.808	0.797	0.894	0.899	0.847	0.776	0.802	0.735	0.801	0.768																																																																																				
671	0.230	0.577	0.802	0.790	0.887	0.891	0.842	0.772	0.798	0.730	0.797	0.765																																																																																				
672	0.227	0.568	0.795	0.784	0.881	0.884	0.836	0.769	0.794	0.725	0.792	0.762																																																																																				
673	0.223	0.559	0.789	0.777	0.874	0.876	0.830	0.765	0.789	0.720	0.787	0.758																																																																																				
674	0.220	0.550	0.782	0.770	0.866	0.867	0.824	0.760	0.784	0.715	0.782	0.755																																																																																				
675	0.216	0.542	0.775	0.763	0.859	0.860	0.818	0.756	0.779	0.710	0.777	0.751																																																																																				
676	0.213	0.532	0.768	0.755	0.851	0.851	0.811	0.752	0.774	0.705	0.771	0.747																																																																																				
677	0.210	0.524	0.761	0.748	0.844	0.843	0.805	0.747	0.769	0.699	0.765	0.743																																																																																				
678	0.207	0.516	0.754	0.742	0.837	0.835	0.799	0.743	0.764	0.694	0.760	0.739																																																																																				
679	0.204	0.507	0.747	0.735	0.829	0.827	0.792	0.738	0.758	0.689	0.755	0.734																																																																																				
680	0.201	0.499	0.740	0.727	0.821	0.818	0.785	0.733	0.753	0.683	0.749	0.730																																																																																				
681	0.198	0.491	0.733	0.720	0.814	0.810	0.778	0.729	0.747	0.677	0.743	0.725																																																																																				
682	0.195	0.482	0.725	0.713	0.806	0.801	0.772	0.724	0.742	0.671	0.737	0.721																																																																																				
683	0.193	0.475	0.719	0.706	0.799	0.793	0.765	0.719	0.736	0.666	0.731	0.716																																																																																				
684	0.190	0.467	0.711	0.699	0.791	0.785	0.759	0.714	0.731	0.661	0.726	0.712																																																																																				
685	0.187	0.458	0.704	0.691	0.782	0.777	0.751	0.708	0.724	0.655	0.719	0.706																																																																																				
686	0.184	0.451	0.696	0.684	0.775	0.768	0.744	0.702	0.718	0.649	0.713	0.701																																																																																				
687	0.182	0.442	0.688	0.676	0.766	0.759	0.737	0.697	0.712	0.642	0.707	0.696																																																																																				
688	0.179	0.434	0.680	0.669	0.758	0.751	0.730	0.691	0.706	0.636	0.700	0.691																																																																																				
689	0.177	0.427	0.673	0.661	0.751	0.743	0.723	0.685	0.700	0.631	0.694	0.685																																																																																				
690	0.174	0.420	0.666	0.654	0.743	0.735	0.716	0.680	0.694	0.625	0.688	0.680																																																																																				
691	0.172	0.413	0.659	0.647	0.736	0.727	0.710	0.675	0.688	0.620	0.683	0.675																																																																																				
692	0.170	0.406	0.652	0.641	0.728	0.719	0.703	0.669	0.682	0.614	0.676	0.670																																																																																				
693	0.168	0.399	0.644	0.633	0.720	0.711	0.696	0.663	0.676	0.608	0.670	0.665																																																																																				
694	0.166	0.392	0.637	0.627	0.713	0.703	0.689	0.658	0.670	0.602	0.664	0.659																																																																																				
695	0.164	0.385	0.630	0.620	0.706	0.696	0.682	0.652	0.664	0.596	0.658	0.654																																																																																				
696	0.161	0.379	0.623	0.613	0.698	0.688	0.675	0.646	0.657	0.591	0.652	0.649																																																																																				
697	0.159	0.372	0.615	0.605	0.689	0.679	0.668	0.640	0.651	0.584	0.645	0.643																																																																																				
698	0.157	0.366	0.609	0.600	0.683	0.672	0.662	0.635	0.646	0.580	0.640	0.638																																																																																				
699	0.156	0.360	0.603	0.593	0.676	0.665	0.656	0.629	0.640	0.574	0.635	0.633																																																																																				
700	0.154	0.354	0.597	0.588	0.670	0.659	0.650	0.624	0.635	0.570	0.629	0.628																																																																																				
701	0.152	0.349	0.590	0.581	0.663	0.652	0.644	0.619	0.629	0.564	0.624	0.623																																																																																				
702	0.150	0.343	0.584	0.575	0.656	0.644	0.638	0.613	0.623	0.559	0.618	0.618																																																																																				
703	0.149	0.337	0.577	0.568	0.648	0.637	0.631	0.607	0.617	0.553	0.612	0.613																																																																																				
704	0.147	0.331	0.570	0.562	0.642	0.630	0.625	0.601	0.612	0.548	0.607	0.608																																																																																				
705	0.145	0.326	0.564	0.556	0.635	0.624	0.620	0.596	0.607	0.543	0.602	0.603																																																																																				
706	0.144	0.321	0.558	0.550	0.629	0.618	0.614	0.591	0.601	0.538	0.597	0.598																																																																																				
707	0.142	0.315	0.552	0.545	0.623	0.611	0.608	0.586	0.596	0.533	0.591	0.593																																																																																				
708	0.141	0.310	0.547	0.539	0.617	0.605	0.603	0.580	0.591	0.528	0.586	0.589																																																																																				
709	0.140	0.305	0.541	0.533	0.611	0.598	0.597	0.575	0.585	0.524	0.581	0.584																																																																																				
710	0.138	0.301	0.535	0.528	0.605	0.592	0.591	0.570	0.580	0.519	0.576	0.579																																																																																				
711	0.137	0.296	0.530	0.522	0.599	0.586	0.586	0.565	0.575	0.514	0.571	0.575																																																																																				
712	0.136	0.292	0.525	0.517	0.593	0.581	0.581	0.560	0.571	0.510	0.567	0.571																																																																																				
713	0.134	0.287	0.519	0.512	0.587	0.575	0.576	0.556	0.566	0.505	0.562	0.566																																																																																				
714	0.133	0.283	0.514	0.507	0.581	0.569	0.570	0.550	0.561	0.501	0.557	0.561																																																																																				
715	0.132	0.278	0.509	0.501	0.575	0.563	0.565	0.546	0.556	0.496	0.552	0.557																																																																																				
716	0.131	0.274	0.503	0.496	0.570	0.558	0.560	0.541	0.551	0.492	0.548	0.553																																																																																				
717	0.129	0.270	0.498	0.492	0.564	0.552	0.555	0.536	0.547	0.488	0.543	0.548																																																																																				
718	0.128	0.266	0.494	0.487	0.559	0.547	0.550	0.532	0.542	0.484	0.539	0.544																																																																																				
719	0.127	0.263	0.488	0.482	0.554	0.541	0.545	0.527	0.537	0.479	0.534	0.540																																																																																				
720	0.126	0.259	0.484	0.477	0.549	0.536	0.540	0.523	0.533	0.475	0.530	0.536																																																																																				
721	0.125	0.255	0.478	0.472	0.543	0.531	0.535	0.518	0.528	0.471	0.525	0.531																																																																																				
722	0.124	0.251	0.474	0.467	0.537	0.525	0.530	0.513	0.523	0.467	0.520	0.527																																																																																				
723	0.123	0.247	0.469	0.463	0.532	0.520	0.525	0.509	0.519	0.462	0.516	0.523																																																																																				
724	0.122	0.244	0.464	0.458	0.527	0.514	0.520	0.504	0.514	0.459	0.512	0.518																																																																																				
725	0.121	0.240	0.460	0.454	0.522	0.510	0.515	0.500	0.510	0.455	0.507	0.514																																																																																				
726	0.120	0.237	0.455	0.449	0.517	0.505	0.511	0.496	0.506	0.451	0.503	0.511																																																																																				
727	0.119	0.234	0.451	0.445	0.512	0.500	0.506	0.491	0.501	0.447	0.499	0.507																																																																																				
728	0.118	0.231	0.446	0.440	0.507	0.495	0.501	0.487	0.497	0.443	0.494	0.502																																																																																				
729	0.117	0.227	0.441	0.436	0.502	0.490	0.497	0.483	0.493	0.439	0.490	0.498																																																																																				
730	0.117	0.225	0.437	0.432	0.497	0.485	0.493	0.479	0.489	0.435	0.486	0.495																																																																																				
731	0.116	0.222	0.433	0.428	0.493	0.481	0.488	0.475	0.485	0.431	0.482	0.491																																																																																				
732	0.116	0.219	0.429	0.424	0.488	0.476	0.484	0.471	0.481	0.428	0.478	0.487																																																																																				
733	0.115	0.216	0.425	0.420	0.484	0.472	0.480	0.467	0.477	0.424	0.474	0.483																																																																																				
734	0.114	0.213	0.421	0.416	0.479	0.468	0.476	0.464	0.473	0.421	0.471	0.480																																																																																				
735	0.114	0.211	0.417	0.412	0.475	0.463	0.472	0.460	0.469	0.417	0.467	0.476																																																																																				
736	0.113	0.208	0.413	0.408	0.471	0.459	0.468	0.456	0.465	0.414	0.463	0.472																																																																																				
737	0.112	0.206	0.409	0.404	0.466	0.454	0.464	0.452	0.461	0.410	0.459	0.469																																																																																				
738	0.111	0.203	0.405	0.400	0.461	0.450	0.459	0.448	0.457	0.407	0.455	0.465																																																																																				
739	0.111	0.200	0.401	0.396	0.457	0.446	0.455	0.444	0.453	0.403	0.451	0.461																																																																																				
740	0.110	0.198	0.397	0.392	0.453	0.441	0.451	0.440	0.449	0.399	0.447	0.457																																																																																				
741	0.109	0.195	0.393	0.389	0.449	0.437	0.447	0.436	0.445	0.396	0.443	0.454																																																																																				
742	0.109	0.193	0.389	0.385	0.444	0.433	0.443	0.432	0.441	0.392	0.439	0.450																																																																																				
743	0.108	0.190	0.385	0.381	0.440	0.429	0.439	0.429	0.437	0.389	0.435	0.446																																																																																				
744	0.107	0.188	0.381	0.377	0.435	0.424	0.435	0.425	0.433	0.385	0.432	0.442																																																																																				
745	0.106	0.185	0.377	0.373	0.431	0.420	0.431	0.421	0.429	0.382	0.428	0.439																																																																																				
746	0.105	0.183	0.373	0.370	0.427	0.416	0.427	0.417	0.425	0.378	0.424	0.435																																																																																				
747	0.105	0.180	0.370	0.366	0.422	0.412	0.423	0.413	0.421	0.375	0.420	0.431																																																																																				
748	0.104	0.178	0.366	0.362	0.418	0.408	0.419	0.409	0.418	0.371	0.416	0.428																																																																																				
749	0.103	0.176	0.362	0.358	0.414	0.404	0.415	0.406	0.414	0.368	0.412	0.424																																																																																				
750	0.102	0.174	0.358	0.355	0.410	0.400	0.411	0.402	0.410	0.364	0.409	0.420																																																																																				
751	0.102	0.172	0.355	0.352	0.406	0.396	0.407	0.399	0.407	0.361	0.405	0.417																																																																																				
752	0.101	0.170	0.352	0.349	0.403	0.393	0.404	0.396	0.403	0.358	0.402	0.414																																																																																				
753	0.101	0.168	0.348	0.345	0.399	0.389	0.400	0.392	0.400	0.355	0.398	0.410																																																																																				
754	0.100	0.166	0.345	0.342	0.395	0.385	0.397	0.389	0.396	0.352	0.395	0.407																																																																																				
755	0.099	0.164	0.342	0.339	0.391	0.382	0.393	0.385	0.393	0.349	0.392	0.404																																																																																				
756	0.099	0.162	0.339	0.336	0.388	0.378	0.390	0.382	0.390	0.346	0.389	0.401																																																																																				
757	0.098	0.160	0.335	0.332	0.384	0.374	0.386	0.379	0.386	0.343	0.385	0.397																																																																																				
758	0.098	0.158	0.331	0.329	0.380	0.370	0.382	0.374	0.382	0.340	0.381	0.393																																																																																				
759	0.097	0.156	0.328	0.326	0.376	0.367	0.379	0.372	0.378	0.337	0.378	0.390																																																																																				
760	0.096	0.154	0.325	0.322	0.373	0.363	0.375	0.368	0.375	0.333	0.374	0.387																																																																																				
761	0.096	0.152	0.321	0.319	0.369	0.359	0.371	0.364	0.371	0.330	0.370	0.383																																																																																				
762	0.095	0.150	0.318	0.315	0.365	0.356	0.368	0.361	0.368	0.327	0.367	0.379																																																																																				
763	0.094	0.149	0.315	0.313	0.362	0.352	0.365	0.358	0.365	0.324	0.364	0.376																																																																																				
764	0.094	0.147	0.312	0.310	0.359	0.350	0.362	0.355	0.362	0.322	0.361	0.374																																																																																				
765	0.094	0.146	0.310	0.308	0.356	0.347	0.359	0.353	0.359	0.320	0.359	0.371																																																																																				
766	0.093	0.145	0.307	0.305	0.353	0.344	0.356	0.350	0.356	0.317	0.356	0.368																																																																																				
767	0.093	0.143	0.304	0.302	0.350	0.341	0.353	0.347	0.353	0.314	0.353	0.365																																																																																				
768	0.092	0.142	0.301	0.299	0.346	0.338	0.350	0.344	0.350	0.311	0.350	0.362																																																																																				
769	0.091	0.140	0.298	0.297	0.343	0.334	0.347	0.341	0.347	0.309	0.346	0.359																																																																																				
770	0.091	0.138	0.295	0.294	0.340	0.331	0.344	0.337	0.344	0.306	0.344	0.356																																																																																				
771	0.090	0.137	0.292	0.291	0.337	0.328	0.341	0.334	0.341	0.303	0.341	0.353																																																																																				
772	0.090	0.136	0.290	0.288	0.334	0.325	0.338	0.331	0.338	0.300	0.338	0.350																																																																																				
773	0.089	0.134	0.287	0.286	0.331	0.322	0.335	0.329	0.335	0.298	0.335	0.347																																																																																				
774	0.089	0.132	0.284	0.283	0.328	0.319	0.332	0.326	0.332	0.295	0.332	0.344																																																																																				
775	0.088	0.131	0.282	0.281	0.325	0.317	0.329	0.323	0.329	0.293	0.329	0.342																																																																																				
776	0.088	0.130	0.279	0.278	0.322	0.314	0.326	0.320	0.326	0.290	0.326	0.339																																																																																				
777	0.087	0.129	0.277	0.276	0.319	0.311	0.323	0.317	0.324	0.288	0.324	0.336																																																																																				
778	0.086	0.127	0.274	0.273	0.316	0.308	0.320	0.314	0.320	0.285	0.320	0.333																																																																																				
779	0.086	0.126	0.271	0.270	0.313	0.305	0.318	0.312	0.318	0.283	0.318	0.330																																																																																				
780	0.086	0.124	0.269	0.268	0.310	0.302	0.315	0.309	0.315	0.280	0.315	0.327																																																																																				
781	0.085	0.123	0.266	0.266	0.307	0.300	0.312	0.306	0.312	0.278	0.313	0.325																																																																																				
782	0.085	0.122	0.264	0.263	0.304	0.297	0.310	0.304	0.309	0.276	0.310	0.322																																																																																				
783	0.084	0.121	0.261	0.261	0.302	0.294	0.307	0.301	0.307	0.273	0.307	0.320																																																																																				
784	0.084	0.120	0.259	0.258	0.299	0.291	0.304	0.298	0.304	0.271	0.305	0.317																																																																																				
785	0.083	0.118	0.256	0.256	0.296	0.289	0.302	0.295	0.302	0.269	0.302	0.314																																																																																				
786	0.083	0.117	0.254	0.254	0.293	0.286	0.299	0.293	0.299	0.266	0.299	0.311																																																																																				
787	0.082	0.116	0.252	0.251	0.291	0.283	0.296	0.290	0.296	0.264	0.297	0.309																																																																																				
788	0.082	0.115	0.249	0.249	0.288	0.281	0.294	0.288	0.293	0.262	0.294	0.306																																																																																				
789	0.081	0.114	0.247	0.247	0.286	0.278	0.291	0.285	0.291	0.259	0.292	0.304																																																																																				
790	0.081	0.113	0.245	0.245	0.283	0.276	0.289	0.283	0.289	0.257	0.290	0.301																																																																																				
791	0.080	0.112	0.243	0.243	0.281	0.274	0.287	0.281	0.286	0.255	0.287	0.299																																																																																				
792	0.080	0.111	0.240	0.240	0.278	0.271	0.284	0.278	0.284	0.253	0.285	0.296																																																																																				
793	0.080	0.109	0.238	0.238	0.276	0.269	0.281	0.276	0.281	0.251	0.282	0.294																																																																																				
794	0.079	0.109	0.236	0.236	0.273	0.266	0.279	0.273	0.279	0.249	0.280	0.292																																																																																				
795	0.079	0.107	0.234	0.234	0.271	0.264	0.277	0.271	0.277	0.247	0.277	0.289																																																																																				
796	0.078	0.107	0.232	0.232	0.269	0.262	0.275	0.269	0.275	0.245	0.276	0.287																																																																																				
797	0.078	0.106	0.230	0.230	0.266	0.260	0.272	0.267	0.272	0.243	0.273	0.285																																																																																				
798	0.077	0.105	0.228	0.228	0.264	0.257	0.270	0.264	0.270	0.241	0.271	0.282																																																																																				
799	0.077	0.104	0.226	0.226	0.262	0.255	0.268	0.262	0.268	0.239	0.269	0.281																																																																																				
800	0.077	0.103	0.224	0.224	0.260	0.253	0.266	0.260	0.266	0.237	0.267	0.278																																																																																				
801	0.076	0.102	0.222	0.222	0.257	0.251	0.263	0.258	0.263	0.235	0.264	0.276																																																																																				
802	0.076	0.101	0.220	0.220	0.255	0.249	0.262	0.256	0.261	0.233	0.263	0.274																																																																																				
803	0.076	0.100	0.218	0.219	0.253	0.247	0.259	0.254	0.259	0.231	0.261	0.272																																																																																				
804	0.075	0.100	0.216	0.216	0.251	0.244	0.257	0.252	0.257	0.230	0.258	0.270																																																																																				
805	0.075	0.099	0.214	0.215	0.248	0.242	0.255	0.250	0.255	0.228	0.256	0.268																																																																																				
806	0.075	0.098	0.213	0.213	0.247	0.240	0.253	0.247	0.253	0.226	0.254	0.266																																																																																				
807	0.074	0.097	0.211	0.211	0.244	0.238	0.251	0.246	0.251	0.224	0.252	0.264																																																																																				
808	0.074	0.097	0.209	0.210	0.243	0.237	0.250	0.244	0.249	0.223	0.251	0.262																																																																																				
809	0.074	0.096	0.208	0.208	0.241	0.235	0.248	0.242	0.247	0.221	0.249	0.260																																																																																				
810	0.073	0.095	0.206	0.206	0.239	0.233	0.246	0.240	0.245	0.220	0.247	0.259																																																																																				
811	0.073	0.094	0.204	0.205	0.237	0.231	0.244	0.238	0.243	0.218	0.245	0.256																																																																																				
812	0.073	0.094	0.203	0.203	0.235	0.229	0.242	0.236	0.241	0.216	0.243	0.255																																																																																				
813	0.072	0.093	0.201	0.201	0.233	0.228	0.240	0.234	0.240	0.215	0.241	0.253																																																																																				
814	0.072	0.092	0.200	0.200	0.231	0.226	0.239	0.233	0.238	0.213	0.240	0.251																																																																																				
815	0.072	0.092	0.198	0.199	0.230	0.224	0.237	0.231	0.236	0.211	0.238	0.249																																																																																				
816	0.072	0.091	0.196	0.197	0.228	0.222	0.235	0.229	0.234	0.210	0.236	0.247																																																																																				
817	0.072	0.090	0.195	0.195	0.226	0.221	0.233	0.228	0.233	0.208	0.234	0.246																																																																																				
818	0.071	0.090	0.193	0.194	0.224	0.219	0.232	0.226	0.231	0.207	0.233	0.244																																																																																				
819	0.071	0.089	0.192	0.192	0.223	0.217	0.230	0.224	0.229	0.205	0.231	0.242																																																																																				
820	0.071	0.088	0.190	0.191	0.221	0.215	0.228	0.222	0.227	0.203	0.229	0.240																																																																																				
821	0.071	0.087	0.188	0.189	0.219	0.213	0.226	0.220	0.225	0.202	0.227	0.238																																																																																				
822	0.071	0.087	0.187	0.188	0.217	0.212	0.225	0.219	0.224	0.201	0.226	0.237																																																																																				
823	0.071	0.087	0.186	0.187	0.217	0.212	0.224	0.218	0.223	0.200	0.225	0.236																																																																																				
824	0.071	0.087	0.186	0.187	0.216	0.211	0.223	0.218	0.223	0.200	0.224	0.236																																																																																				
825	0.071	0.087	0.185	0.186	0.215	0.210	0.222	0.217	0.221	0.199	0.223	0.235																																																																																				
826	0.071	0.087	0.184	0.185	0.213	0.209	0.221	0.215	0.220	0.197	0.222	0.233																																																																																				
827	0.071	0.086	0.182	0.183	0.212	0.207	0.219	0.214	0.218	0.196	0.220	0.232																																																																																				
828	0.071	0.086	0.182	0.182	0.211	0.206	0.218	0.212	0.217	0.195	0.219	0.230																																																																																				
829	0.071	0.086	0.181	0.182	0.210	0.205	0.217	0.212	0.216	0.194	0.218	0.230																																																																																				
830	0.071	0.086	0.180	0.181	0.209	0.204	0.216	0.211	0.216	0.193	0.217	0.229																																																																																				
831	0.071	0.086	0.179	0.180	0.207	0.203	0.215	0.210	0.214	0.192	0.216	0.227																																																																																				
832	0.071	0.085	0.177	0.178	0.206	0.201	0.213	0.207	0.212	0.191	0.214	0.225																																																																																				
833	0.071	0.085	0.176	0.177	0.205	0.200	0.212	0.206	0.211	0.190	0.213	0.224																																																																																				
834	0.072	0.085	0.175	0.176	0.203	0.199	0.211	0.205	0.210	0.189	0.212	0.223																																																																																				
835	0.071	0.085	0.174	0.175	0.202	0.198	0.210	0.204	0.209	0.188	0.211	0.222																																																																																				
836	0.072	0.085	0.174	0.175	0.202	0.198	0.209	0.204	0.208	0.187	0.210	0.221																																																																																				
837	0.071	0.084	0.173	0.174	0.200	0.196	0.208	0.203	0.207	0.186	0.209	0.220																																																																																				
838	0.071	0.084	0.172	0.172	0.199	0.195	0.206	0.201	0.205	0.185	0.207	0.218																																																																																				
839	0.071	0.083	0.170	0.171	0.198	0.194	0.205	0.199	0.204	0.183	0.206	0.217																																																																																				
840	0.071	0.083	0.169	0.170	0.196	0.193	0.204	0.198	0.203	0.182	0.205	0.216																																																																																				
841	0.071	0.082	0.168	0.169	0.195	0.191	0.203	0.197	0.201	0.181	0.204	0.214																																																																																				
842	0.071	0.082	0.167	0.168	0.194	0.190	0.202	0.196	0.200	0.180	0.203	0.214																																																																																				
843	0.071	0.082	0.167	0.167	0.193	0.189	0.201	0.195	0.199	0.179	0.201	0.212																																																																																				
844	0.071	0.082	0.165	0.166	0.191	0.188	0.199	0.194	0.198	0.178	0.200	0.211																																																																																				
845	0.070	0.081	0.164	0.165	0.190	0.187	0.198	0.192	0.197	0.177	0.199	0.210																																																																																				
846	0.070	0.081	0.163	0.164	0.189	0.186	0.197	0.191	0.196	0.176	0.198	0.209																																																																																				
847	0.070	0.081	0.162	0.163	0.188	0.184	0.196	0.190	0.194	0.175	0.197	0.207																																																																																				
848	0.070	0.080	0.161	0.162	0.187	0.183	0.195	0.189	0.193	0.174	0.195	0.206																																																																																				
849	0.070	0.080	0.160	0.161	0.186	0.182	0.194	0.188	0.192	0.173	0.194	0.205																																																																																				
850	0.070	0.080	0.159	0.160	0.185	0.181	0.193	0.187	0.191	0.172	0.193	0.204																																																																																				
851	0.070	0.079	0.159	0.159	0.184	0.181	0.192	0.186	0.190	0.171	0.192	0.203																																																																																				
852	0.070	0.079	0.157	0.158	0.182	0.179	0.190	0.184	0.189	0.170	0.191	0.202																																																																																				
853	0.070	0.079	0.157	0.158	0.182	0.178	0.189	0.184	0.188	0.169	0.190	0.201																																																																																				
854	0.070	0.078	0.156	0.157	0.180	0.177	0.188	0.183	0.187	0.168	0.189	0.200																																																																																				
855	0.070	0.078	0.155	0.156	0.180	0.177	0.187	0.181	0.186	0.167	0.188	0.199																																																																																				
856	0.069	0.078	0.154	0.155	0.178	0.175	0.186	0.180	0.184	0.167	0.187	0.198																																																																																				
857	0.070	0.078	0.153	0.154	0.177	0.174	0.185	0.180	0.183	0.166	0.186	0.197																																																																																				
858	0.070	0.078	0.152	0.153	0.176	0.174	0.184	0.178	0.183	0.165	0.185	0.196																																																																																				
859	0.069	0.077	0.152	0.152	0.176	0.173	0.184	0.178	0.182	0.164	0.184	0.195																																																																																				
860	0.069	0.077	0.151	0.152	0.175	0.172	0.183	0.176	0.181	0.163	0.183	0.194																																																																																				
861	0.069	0.077	0.150	0.151	0.174	0.171	0.182	0.176	0.180	0.163	0.182	0.193																																																																																				
862	0.070	0.077	0.149	0.151	0.173	0.171	0.181	0.175	0.179	0.162	0.181	0.192																																																																																				
863	0.070	0.077	0.149	0.150	0.172	0.170	0.180	0.174	0.178	0.161	0.180	0.191																																																																																				
864	0.070	0.077	0.148	0.149	0.171	0.169	0.179	0.173	0.177	0.161	0.180	0.190																																																																																				
865	0.070	0.077	0.148	0.149	0.171	0.168	0.179	0.173	0.177	0.160	0.179	0.190																																																																																				
866	0.070	0.077	0.147	0.148	0.170	0.168	0.178	0.172	0.176	0.159	0.178	0.189																																																																																				
867	0.070	0.077	0.146	0.148	0.169	0.167	0.178	0.171	0.175	0.159	0.177	0.188																																																																																				
868	0.070	0.077	0.146	0.147	0.168	0.167	0.177	0.170	0.175	0.158	0.177	0.188																																																																																				
869	0.070	0.077	0.145	0.146	0.168	0.166	0.176	0.170	0.174	0.158	0.176	0.187																																																																																				
870	0.071	0.077	0.145	0.146	0.167	0.165	0.176	0.169	0.174	0.157	0.175	0.186																																																																																				
871	0.071	0.077	0.145	0.146	0.167	0.165	0.175	0.169	0.173	0.157	0.175	0.186																																																																																				
872	0.071	0.077	0.145	0.146	0.166	0.165	0.175	0.168	0.173	0.156	0.174	0.186																																																																																				
873	0.072	0.077	0.144	0.145	0.166	0.164	0.174	0.167	0.172	0.156	0.173	0.185																																																																																				
874	0.072	0.077	0.143	0.145	0.165	0.163	0.174	0.167	0.171	0.155	0.173	0.184																																																																																				
875	0.072	0.077	0.143	0.144	0.164	0.163	0.173	0.166	0.171	0.155	0.172	0.184																																																																																				
876	0.072	0.077	0.142	0.144	0.164	0.162	0.172	0.165	0.170	0.154	0.172	0.183																																																																																				
877	0.072	0.077	0.142	0.143	0.163	0.162	0.172	0.165	0.169	0.153	0.171	0.182																																																																																				
878	0.072	0.076	0.141	0.142	0.162	0.160	0.171	0.163	0.168	0.152	0.170	0.181																																																																																				
879	0.071	0.076	0.139	0.141	0.161	0.159	0.169	0.162	0.166	0.151	0.169	0.179																																																																																				
880	0.071	0.075	0.138	0.139	0.160	0.158	0.168	0.161	0.165	0.150	0.168	0.178																																																																																				
881	0.070	0.075	0.138	0.139	0.159	0.157	0.167	0.160	0.164	0.149	0.167	0.177																																																																																				
882	0.070	0.075	0.137	0.138	0.158	0.157	0.166	0.160	0.164	0.149	0.166	0.176																																																																																				
883	0.070	0.075	0.137	0.138	0.158	0.156	0.166	0.160	0.164	0.149	0.165	0.176																																																																																				
884	0.071	0.075	0.137	0.138	0.157	0.156	0.165	0.159	0.163	0.148	0.165	0.176																																																																																				
885	0.071	0.075	0.136	0.138	0.157	0.155	0.164	0.159	0.162	0.148	0.164	0.175																																																																																				
886	0.070	0.074	0.135	0.136	0.155	0.154	0.164	0.157	0.161	0.146	0.163	0.173																																																																																				
887	0.070	0.074	0.134	0.135	0.155	0.153	0.163	0.156	0.160	0.145	0.162	0.173																																																																																				
888	0.070	0.074	0.133	0.135	0.154	0.152	0.162	0.156	0.159	0.145	0.162	0.172																																																																																				
889	0.070	0.074	0.133	0.134	0.153	0.152	0.161	0.155	0.158	0.144	0.161	0.171																																																																																				
890	0.069	0.074	0.132	0.133	0.152	0.151	0.160	0.154	0.158	0.143	0.160	0.170																																																																																				
891	0.069	0.073	0.131	0.133	0.152	0.150	0.160	0.153	0.157	0.142	0.160	0.169																																																																																				
892	0.069	0.073	0.131	0.132	0.151	0.149	0.159	0.152	0.156	0.142	0.159	0.168																																																																																				
893	0.069	0.073	0.130	0.131	0.150	0.149	0.158	0.151	0.155	0.141	0.158	0.168																																																																																				
894	0.069	0.073	0.129	0.131	0.150	0.148	0.157	0.151	0.154	0.140	0.157	0.167																																																																																				
895	0.069	0.073	0.129	0.130	0.149	0.148	0.157	0.151	0.154	0.140	0.157	0.167																																																																																				
896	0.069	0.073	0.129	0.130	0.149	0.147	0.157	0.150	0.154	0.140	0.157	0.166																																																																																				
897	0.070	0.073	0.129	0.130	0.149	0.147	0.156	0.150	0.154	0.140	0.156	0.166																																																																																				
898	0.070	0.073	0.129	0.130	0.148	0.147	0.156	0.150	0.153	0.139	0.155	0.165																																																																																				
899	0.070	0.073	0.128	0.129	0.148	0.146	0.155	0.149	0.152	0.139	0.155	0.165																																																																																				
900	0.070	0.073	0.127	0.129	0.147	0.146	0.155	0.148	0.152	0.138	0.154	0.164																																																																																				
901	0.070	0.073	0.127	0.128	0.147	0.145	0.154	0.148	0.151	0.138	0.154	0.164																																																																																				
902	0.070	0.073	0.126	0.127	0.146	0.144	0.154	0.147	0.150	0.137	0.153	0.163																																																																																				
903	0.070	0.073	0.126	0.127	0.145	0.144	0.153	0.146	0.150	0.136	0.153	0.162																																																																																				
904	0.070	0.073	0.126	0.127	0.145	0.144	0.153	0.146	0.149	0.136	0.152	0.162																																																																																				
905	0.070	0.073	0.126	0.127	0.145	0.143	0.152	0.146	0.149	0.136	0.152	0.162																																																																																				
906	0.070	0.073	0.126	0.127	0.145	0.144	0.152	0.146	0.149	0.136	0.152	0.162																																																																																				
907	0.071	0.074	0.126	0.127	0.145	0.143	0.152	0.146	0.149	0.136	0.152	0.161																																																																																				
908	0.071	0.074	0.125	0.127	0.144	0.143	0.152	0.145	0.149	0.136	0.151	0.161																																																																																				
909	0.071	0.074	0.125	0.126	0.144	0.143	0.152	0.145	0.148	0.135	0.151	0.160																																																																																				
910	0.071	0.074	0.125	0.126	0.144	0.142	0.151	0.144	0.148	0.135	0.151	0.160																																																																																				
911	0.071	0.074	0.124	0.125	0.143	0.142	0.151	0.144	0.147	0.135	0.150	0.160																																																																																				
912	0.072	0.074	0.124	0.126	0.143	0.142	0.151	0.144	0.147	0.134	0.150	0.160																																																																																				
913	0.072	0.074	0.124	0.125	0.143	0.142	0.151	0.143	0.147	0.134	0.150	0.160																																																																																				
914	0.072	0.074	0.124	0.125	0.143	0.142	0.151	0.143	0.146	0.134	0.150	0.159																																																																																				
915	0.073	0.075	0.124	0.125	0.143	0.142	0.150	0.143	0.146	0.134	0.150	0.159																																																																																				
916	0.073	0.075	0.124	0.125	0.143	0.142	0.150	0.143	0.147	0.134	0.149	0.159																																																																																				
917	0.073	0.076	0.124	0.126	0.143	0.142	0.150	0.143	0.147	0.134	0.149	0.159																																																																																				
918	0.074	0.076	0.125	0.126	0.143	0.142	0.150	0.144	0.147	0.135	0.149	0.159																																																																																				
919	0.075	0.077	0.125	0.126	0.143	0.143	0.150	0.144	0.147	0.135	0.149	0.159																																																																																				
920	0.076	0.077	0.125	0.126	0.143	0.143	0.151	0.144	0.147	0.135	0.150	0.159																																																																																				
921	0.076	0.078	0.126	0.127	0.143	0.143	0.151	0.144	0.147	0.135	0.150	0.159																																																																																				
922	0.077	0.079	0.126	0.127	0.144	0.144	0.152	0.144	0.148	0.135	0.150	0.160																																																																																				
923	0.078	0.080	0.127	0.128	0.145	0.145	0.152	0.145	0.148	0.136	0.151	0.160																																																																																				
924	0.079	0.080	0.127	0.128	0.145	0.145	0.153	0.145	0.149	0.136	0.151	0.161																																																																																				
925	0.080	0.082	0.128	0.129	0.146	0.146	0.153	0.146	0.149	0.137	0.152	0.161																																																																																				
926	0.081	0.082	0.129	0.130	0.147	0.147	0.154	0.146	0.150	0.137	0.152	0.162																																																																																				
927	0.082	0.083	0.130	0.130	0.148	0.148	0.155	0.147	0.151	0.138	0.153	0.162																																																																																				
928	0.084	0.085	0.131	0.131	0.149	0.149	0.156	0.148	0.152	0.139	0.154	0.163																																																																																				
929	0.085	0.086	0.132	0.132	0.150	0.150	0.157	0.149	0.152	0.140	0.155	0.164																																																																																				
930	0.086	0.087	0.133	0.133	0.151	0.151	0.158	0.150	0.153	0.141	0.156	0.165																																																																																				
931	0.088	0.088	0.134	0.134	0.152	0.153	0.159	0.151	0.154	0.142	0.157	0.166																																																																																				
932	0.089	0.090	0.135	0.136	0.153	0.154	0.160	0.152	0.155	0.143	0.158	0.167																																																																																				
933	0.091	0.092	0.137	0.137	0.155	0.156	0.161	0.153	0.157	0.144	0.160	0.168																																																																																				
934	0.093	0.093	0.138	0.138	0.156	0.157	0.163	0.154	0.158	0.145	0.161	0.169																																																																																				
935	0.095	0.095	0.140	0.140	0.158	0.159	0.164	0.156	0.159	0.146	0.162	0.170																																																																																				
936	0.096	0.096	0.141	0.141	0.159	0.161	0.165	0.157	0.161	0.147	0.163	0.172																																																																																				
937	0.098	0.098	0.143	0.142	0.161	0.162	0.167	0.159	0.162	0.149	0.165	0.173																																																																																				
938	0.100	0.100	0.144	0.144	0.162	0.164	0.168	0.160	0.163	0.150	0.166	0.174																																																																																				
939	0.102	0.101	0.146	0.145	0.164	0.166	0.169	0.161	0.165	0.151	0.167	0.175																																																																																				
940	0.104	0.103	0.148	0.147	0.166	0.168	0.171	0.163	0.166	0.153	0.169	0.177																																																																																				
941	0.106	0.105	0.149	0.149	0.168	0.170	0.173	0.165	0.168	0.154	0.171	0.179																																																																																				
942	0.109	0.108	0.152	0.151	0.171	0.173	0.175	0.167	0.170	0.157	0.173	0.181																																																																																				
943	0.111	0.110	0.154	0.153	0.173	0.175	0.177	0.169	0.173	0.159	0.175	0.183																																																																																				
944	0.114	0.113	0.157	0.156	0.176	0.178	0.180	0.172	0.175	0.161	0.177	0.185																																																																																				
945	0.116	0.115	0.160	0.158	0.178	0.181	0.182	0.174	0.177	0.163	0.180	0.187																																																																																				
946	0.120	0.119	0.163	0.161	0.181	0.185	0.186	0.177	0.180	0.166	0.182	0.190																																																																																				
947	0.123	0.122	0.166	0.165	0.185	0.188	0.189	0.180	0.183	0.168	0.186	0.193																																																																																				
948	0.127	0.126	0.170	0.168	0.189	0.193	0.193	0.184	0.187	0.172	0.189	0.197																																																																																				
949	0.131	0.130	0.174	0.172	0.193	0.197	0.196	0.187	0.191	0.175	0.193	0.200																																																																																				
950	0.135	0.133	0.178	0.175	0.197	0.202	0.200	0.191	0.194	0.179	0.197	0.203																																																																																				
951	0.139	0.137	0.182	0.179	0.201	0.206	0.204	0.195	0.198	0.182	0.200	0.207																																																																																				
952	0.143	0.141	0.185	0.183	0.205	0.210	0.207	0.198	0.201	0.185	0.203	0.210																																																																																				
953	0.148	0.145	0.190	0.187	0.209	0.215	0.211	0.202	0.206	0.189	0.207	0.214																																																																																				
954	0.153	0.150	0.195	0.192	0.215	0.221	0.217	0.207	0.210	0.194	0.212	0.219																																																																																				
955	0.158	0.155	0.200	0.196	0.220	0.226	0.221	0.211	0.215	0.198	0.217	0.223																																																																																				
956	0.162	0.159	0.204	0.200	0.224	0.231	0.225	0.215	0.219	0.201	0.221	0.227																																																																																				
957	0.166	0.163	0.208	0.204	0.228	0.235	0.229	0.219	0.222	0.205	0.224	0.231																																																																																				
958	0.170	0.166	0.212	0.207	0.232	0.239	0.233	0.223	0.226	0.208	0.228	0.234																																																																																				
959	0.172	0.169	0.214	0.210	0.234	0.242	0.235	0.225	0.228	0.210	0.230	0.236																																																																																				
960	0.175	0.171	0.216	0.212	0.237	0.244	0.237	0.227	0.230	0.212	0.232	0.238																																																																																				
961	0.177	0.173	0.218	0.213	0.239	0.246	0.239	0.228	0.232	0.213	0.234	0.239																																																																																				
962	0.178	0.175	0.220	0.215	0.240	0.248	0.241	0.230	0.233	0.215	0.235	0.241																																																																																				
963	0.179	0.175	0.220	0.216	0.241	0.249	0.241	0.231	0.234	0.216	0.236	0.241																																																																																				
964	0.181	0.176	0.222	0.217	0.242	0.250	0.242	0.231	0.235	0.216	0.237	0.242																																																																																				
965	0.181	0.177	0.222	0.217	0.243	0.251	0.243	0.232	0.235	0.217	0.237	0.243																																																																																				
966	0.182	0.178	0.223	0.218	0.243	0.252	0.243	0.232	0.236	0.217	0.237	0.243																																																																																				
967	0.182	0.178	0.223	0.218	0.243	0.252	0.243	0.232	0.236	0.217	0.237	0.243																																																																																				
968	0.183	0.179	0.223	0.218	0.244	0.252	0.243	0.232	0.236	0.217	0.238	0.243																																																																																				
969	0.184	0.179	0.223	0.219	0.244	0.252	0.244	0.233	0.236	0.218	0.238	0.243																																																																																				
970	0.184	0.180	0.224	0.219	0.244	0.252	0.244	0.233	0.236	0.218	0.238	0.243																																																																																				
971	0.184	0.180	0.224	0.219	0.244	0.253	0.244	0.233	0.236	0.218	0.238	0.243																																																																																				
972	0.185	0.180	0.224	0.219	0.244	0.253	0.244	0.233	0.236	0.218	0.238	0.243																																																																																				
973	0.185	0.180	0.224	0.219	0.244	0.253	0.244	0.233	0.236	0.218	0.238	0.243																																																																																				
974	0.185	0.180	0.224	0.219	0.244	0.253	0.244	0.232	0.236	0.217	0.238	0.243																																																																																				
975	0.185	0.180	0.223	0.218	0.244	0.252	0.243	0.232	0.235	0.217	0.237	0.242																																																																																				
976	0.184	0.180	0.223	0.218	0.243	0.251	0.243	0.231	0.234	0.216	0.237	0.242																																																																																				
977	0.184	0.179	0.222	0.216	0.242	0.250	0.242	0.230	0.233	0.215	0.236	0.241																																																																																				
978	0.183	0.179	0.221	0.216	0.242	0.250	0.241	0.229	0.233	0.215	0.235	0.240																																																																																				
979	0.183	0.179	0.221	0.216	0.241	0.249	0.241	0.229	0.233	0.215	0.235	0.240																																																																																				
980	0.184	0.179	0.221	0.216	0.241	0.250	0.240	0.229	0.233	0.215	0.234	0.239																																																																																				
981	0.184	0.179	0.221	0.216	0.241	0.250	0.240	0.229	0.233	0.215	0.234	0.239																																																																																				
982	0.184	0.179	0.221	0.216	0.240	0.249	0.239	0.229	0.232	0.215	0.234	0.239																																																																																				
983	0.183	0.178	0.220	0.215	0.239	0.248	0.238	0.228	0.231	0.213	0.232	0.237																																																																																				
984	0.181	0.177	0.218	0.213	0.237	0.246	0.237	0.226	0.229	0.212	0.231	0.236																																																																																				
985	0.180	0.175	0.216	0.211	0.235	0.244	0.235	0.224	0.227	0.210	0.229	0.234																																																																																				
986	0.179	0.174	0.215	0.210	0.234	0.242	0.234	0.222	0.226	0.209	0.228	0.233																																																																																				
987	0.177	0.173	0.213	0.208	0.232	0.240	0.232	0.221	0.224	0.207	0.227	0.231																																																																																				
988	0.176	0.171	0.211	0.207	0.231	0.238	0.231	0.218	0.222	0.205	0.225	0.229																																																																																				
989	0.174	0.169	0.209	0.204	0.228	0.236	0.229	0.216	0.220	0.203	0.223	0.227																																																																																				
990	0.172	0.168	0.207	0.203	0.227	0.234	0.227	0.214	0.218	0.202	0.221	0.225																																																																																				
991	0.171	0.167	0.206	0.201	0.225	0.232	0.225	0.213	0.217	0.200	0.220	0.224																																																																																				
992	0.171	0.167	0.206	0.201	0.225	0.232	0.225	0.213	0.217	0.201	0.219	0.224																																																																																				
993	0.171	0.167	0.205	0.201	0.224	0.232	0.224	0.213	0.216	0.200	0.218	0.223																																																																																				
994	0.171	0.167	0.205	0.201	0.223	0.231	0.223	0.212	0.216	0.200	0.218	0.222																																																																																				
995	0.170	0.166	0.204	0.200	0.222	0.230	0.223	0.211	0.215	0.199	0.217	0.222																																																																																				
996	0.169	0.164	0.202	0.198	0.220	0.228	0.221	0.209	0.213	0.197	0.214	0.219																																																																																				
997	0.166	0.162	0.199	0.196	0.217	0.225	0.218	0.207	0.210	0.195	0.212	0.217																																																																																				
998	0.164	0.160	0.197	0.193	0.215	0.222	0.216	0.204	0.208	0.192	0.210	0.214																																																																																				
999	0.162	0.158	0.195	0.191	0.213	0.220	0.214	0.202	0.206	0.190	0.208	0.213																																																																																				

结果
	1	2	3	4	5	6	7	8	9	10	11	12
A	0.677	0.906	0.927	0.910	0.998	1.053	0.928	0.821	0.855	0.803	0.860	0.801	Mean Max OD [Spectrum]
B	?????	?????	?????	?????	?????	?????	?????	?????	?????	?????	?????	?????	Mean Max OD [Spectrum]
C	?????	?????	?????	?????	?????	?????	?????	?????	?????	?????	?????	?????	Mean Max OD [Spectrum]
D	?????	?????	?????	?????	?????	?????	?????	?????	?????	?????	?????	?????	Mean Max OD [Spectrum]
E	?????	?????	?????	?????	?????	?????	?????	?????	?????	?????	?????	?????	Mean Max OD [Spectrum]
F	?????	?????	?????	?????	?????	?????	?????	?????	?????	?????	?????	?????	Mean Max OD [Spectrum]
G	?????	?????	?????	?????	?????	?????	?????	?????	?????	?????	?????	?????	Mean Max OD [Spectrum]
H	?????	?????	?????	?????	?????	?????	?????	?????	?????	?????	?????	?????	Mean Max OD [Spectrum]

