

软件版本	3.11.19



实验文件路径:	C:\Users\inlab\Desktop\H行400到999nm.xpt
方案文件路径:	



板编号	板 1
日期	2023/6/5
时间	10:34:50
检测仪类型:	Epoch 2
检测仪序列号:	2205170B
检测类型	检测仪

程序详细信息

板类型	96 WELL PLATE
完成后弹出板	
检测	吸收光 光谱
	H1..H12
	开始: 400 nm,  停止: 999 nm,  步骤: 1 nm
	检测前校准
	检测速度: 正常,  延迟: 100 msec,  测量值/数据点: 8

Spectrum

波长	A1	A2	A3	A4	A5	A6	A7	A8	A9	A10	A11	A12	B1	B2	B3	B4	B5	B6	B7	B8	B9	B10	B11	B12	C1	C2	C3	C4	C5	C6	C7	C8	C9	C10	C11	C12	D1	D2	D3	D4	D5	D6	D7	D8	D9	D10	D11	D12	E1	E2	E3	E4	E5	E6	E7	E8	E9	E10	E11	E12	F1	F2	F3	F4	F5	F6	F7	F8	F9	F10	F11	F12	G1	G2	G3	G4	G5	G6	G7	G8	G9	G10	G11	G12	H1	H2	H3	H4	H5	H6	H7	H8	H9	H10	H11	H12
400																																																																																					0.482	0.534	0.500	0.551	0.561	0.521	0.494	0.535	0.473	0.519	0.426	0.496
401																																																																																					0.480	0.533	0.499	0.549	0.560	0.520	0.493	0.534	0.472	0.517	0.425	0.495
402																																																																																					0.479	0.531	0.497	0.548	0.558	0.519	0.491	0.532	0.471	0.516	0.424	0.494
403																																																																																					0.478	0.530	0.496	0.546	0.557	0.517	0.490	0.531	0.470	0.515	0.423	0.492
404																																																																																					0.477	0.529	0.495	0.545	0.555	0.516	0.489	0.530	0.469	0.513	0.422	0.491
405																																																																																					0.475	0.528	0.494	0.544	0.554	0.515	0.488	0.528	0.468	0.512	0.421	0.490
406																																																																																					0.474	0.526	0.492	0.542	0.553	0.513	0.486	0.527	0.466	0.511	0.420	0.489
407																																																																																					0.473	0.525	0.491	0.541	0.552	0.512	0.485	0.526	0.465	0.510	0.419	0.488
408																																																																																					0.472	0.524	0.490	0.540	0.550	0.511	0.484	0.525	0.464	0.509	0.418	0.487
409																																																																																					0.471	0.523	0.489	0.539	0.549	0.510	0.483	0.523	0.463	0.508	0.417	0.485
410																																																																																					0.470	0.522	0.488	0.537	0.548	0.509	0.482	0.522	0.462	0.506	0.416	0.484
411																																																																																					0.469	0.521	0.487	0.536	0.546	0.507	0.481	0.521	0.461	0.505	0.415	0.483
412																																																																																					0.468	0.519	0.486	0.535	0.545	0.506	0.479	0.519	0.460	0.504	0.414	0.482
413																																																																																					0.467	0.518	0.485	0.534	0.544	0.505	0.478	0.518	0.459	0.503	0.413	0.481
414																																																																																					0.466	0.517	0.484	0.533	0.543	0.504	0.477	0.517	0.458	0.502	0.413	0.480
415																																																																																					0.465	0.516	0.483	0.531	0.541	0.503	0.476	0.516	0.457	0.501	0.412	0.479
416																																																																																					0.464	0.515	0.482	0.530	0.540	0.502	0.475	0.515	0.456	0.500	0.411	0.478
417																																																																																					0.463	0.514	0.480	0.529	0.539	0.501	0.474	0.514	0.455	0.498	0.410	0.477
418																																																																																					0.462	0.513	0.479	0.528	0.538	0.499	0.473	0.512	0.453	0.497	0.409	0.476
419																																																																																					0.461	0.511	0.478	0.527	0.537	0.498	0.472	0.511	0.452	0.496	0.408	0.475
420																																																																																					0.460	0.510	0.477	0.526	0.535	0.497	0.471	0.510	0.451	0.495	0.407	0.473
421																																																																																					0.459	0.509	0.477	0.525	0.534	0.496	0.470	0.509	0.451	0.494	0.406	0.473
422																																																																																					0.458	0.509	0.476	0.524	0.533	0.495	0.469	0.508	0.450	0.493	0.406	0.472
423																																																																																					0.457	0.508	0.475	0.523	0.533	0.495	0.468	0.507	0.449	0.492	0.405	0.471
424																																																																																					0.456	0.507	0.474	0.522	0.531	0.494	0.467	0.506	0.448	0.491	0.404	0.470
425																																																																																					0.456	0.506	0.473	0.521	0.531	0.493	0.467	0.505	0.447	0.491	0.403	0.469
426																																																																																					0.455	0.505	0.472	0.520	0.529	0.492	0.466	0.504	0.446	0.490	0.403	0.468
427																																																																																					0.454	0.504	0.472	0.519	0.529	0.491	0.465	0.503	0.446	0.489	0.402	0.467
428																																																																																					0.453	0.503	0.471	0.518	0.528	0.490	0.464	0.502	0.445	0.488	0.401	0.467
429																																																																																					0.452	0.502	0.470	0.517	0.527	0.489	0.463	0.501	0.444	0.487	0.400	0.466
430																																																																																					0.451	0.501	0.469	0.516	0.526	0.488	0.462	0.500	0.443	0.486	0.400	0.465
431																																																																																					0.451	0.500	0.468	0.515	0.524	0.487	0.461	0.499	0.442	0.485	0.399	0.464
432																																																																																					0.450	0.499	0.467	0.514	0.523	0.486	0.460	0.498	0.441	0.484	0.398	0.463
433																																																																																					0.449	0.498	0.466	0.513	0.522	0.485	0.460	0.497	0.440	0.483	0.397	0.462
434																																																																																					0.448	0.497	0.465	0.512	0.521	0.484	0.459	0.496	0.439	0.482	0.397	0.461
435																																																																																					0.447	0.496	0.464	0.511	0.520	0.484	0.458	0.495	0.439	0.482	0.396	0.460
436																																																																																					0.447	0.495	0.464	0.510	0.519	0.483	0.457	0.495	0.438	0.481	0.395	0.459
437																																																																																					0.446	0.495	0.463	0.510	0.519	0.482	0.456	0.494	0.437	0.480	0.394	0.459
438																																																																																					0.445	0.494	0.462	0.509	0.518	0.481	0.455	0.493	0.436	0.479	0.394	0.458
439																																																																																					0.444	0.493	0.461	0.508	0.517	0.480	0.455	0.492	0.435	0.478	0.393	0.457
440																																																																																					0.443	0.492	0.460	0.507	0.516	0.479	0.454	0.491	0.435	0.477	0.392	0.456
441																																																																																					0.443	0.491	0.460	0.506	0.515	0.478	0.453	0.490	0.434	0.477	0.392	0.455
442																																																																																					0.442	0.491	0.459	0.505	0.514	0.478	0.452	0.489	0.433	0.476	0.391	0.454
443																																																																																					0.442	0.490	0.458	0.504	0.514	0.477	0.452	0.489	0.433	0.476	0.391	0.454
444																																																																																					0.441	0.489	0.458	0.504	0.513	0.476	0.451	0.488	0.432	0.475	0.390	0.453
445																																																																																					0.440	0.488	0.457	0.503	0.512	0.475	0.450	0.487	0.431	0.474	0.389	0.452
446																																																																																					0.440	0.488	0.456	0.502	0.511	0.475	0.449	0.486	0.431	0.473	0.389	0.452
447																																																																																					0.439	0.487	0.456	0.501	0.511	0.474	0.449	0.485	0.430	0.473	0.388	0.451
448																																																																																					0.439	0.487	0.455	0.501	0.510	0.473	0.448	0.485	0.429	0.472	0.388	0.450
449																																																																																					0.438	0.486	0.454	0.500	0.509	0.473	0.447	0.484	0.429	0.472	0.387	0.450
450																																																																																					0.438	0.485	0.454	0.499	0.509	0.472	0.447	0.484	0.428	0.471	0.387	0.449
451																																																																																					0.437	0.485	0.453	0.499	0.508	0.471	0.446	0.483	0.428	0.470	0.386	0.449
452																																																																																					0.437	0.484	0.453	0.498	0.507	0.471	0.446	0.482	0.427	0.470	0.386	0.448
453																																																																																					0.436	0.484	0.452	0.498	0.507	0.470	0.445	0.482	0.427	0.469	0.385	0.447
454																																																																																					0.436	0.483	0.452	0.497	0.506	0.470	0.445	0.481	0.426	0.469	0.385	0.447
455																																																																																					0.435	0.483	0.451	0.497	0.506	0.470	0.444	0.481	0.426	0.468	0.384	0.446
456																																																																																					0.435	0.482	0.451	0.496	0.505	0.469	0.444	0.480	0.425	0.468	0.384	0.446
457																																																																																					0.435	0.482	0.450	0.496	0.505	0.469	0.444	0.480	0.425	0.467	0.383	0.446
458																																																																																					0.434	0.481	0.450	0.495	0.504	0.468	0.443	0.479	0.424	0.467	0.383	0.445
459																																																																																					0.434	0.481	0.450	0.495	0.504	0.468	0.443	0.479	0.424	0.466	0.383	0.445
460																																																																																					0.434	0.481	0.450	0.495	0.504	0.468	0.443	0.479	0.424	0.466	0.383	0.444
461																																																																																					0.434	0.481	0.449	0.495	0.504	0.468	0.442	0.478	0.424	0.466	0.383	0.444
462																																																																																					0.434	0.481	0.449	0.495	0.504	0.467	0.442	0.478	0.424	0.466	0.383	0.444
463																																																																																					0.434	0.481	0.449	0.495	0.504	0.467	0.442	0.478	0.423	0.466	0.382	0.444
464																																																																																					0.434	0.481	0.449	0.495	0.504	0.467	0.442	0.478	0.423	0.466	0.382	0.444
465																																																																																					0.434	0.481	0.449	0.494	0.503	0.467	0.442	0.478	0.423	0.466	0.382	0.444
466																																																																																					0.434	0.481	0.449	0.495	0.504	0.467	0.442	0.478	0.423	0.465	0.382	0.444
467																																																																																					0.434	0.481	0.449	0.495	0.504	0.467	0.442	0.478	0.423	0.465	0.382	0.444
468																																																																																					0.434	0.481	0.450	0.495	0.504	0.468	0.442	0.478	0.423	0.466	0.382	0.444
469																																																																																					0.435	0.481	0.450	0.495	0.504	0.468	0.442	0.478	0.424	0.466	0.382	0.444
470																																																																																					0.435	0.482	0.450	0.496	0.505	0.468	0.443	0.479	0.424	0.466	0.382	0.444
471																																																																																					0.436	0.482	0.451	0.496	0.505	0.469	0.443	0.479	0.424	0.466	0.383	0.445
472																																																																																					0.436	0.483	0.451	0.497	0.506	0.469	0.443	0.479	0.425	0.467	0.383	0.445
473																																																																																					0.437	0.484	0.452	0.498	0.507	0.470	0.444	0.480	0.425	0.467	0.384	0.446
474																																																																																					0.438	0.484	0.453	0.498	0.508	0.471	0.445	0.481	0.426	0.468	0.384	0.446
475																																																																																					0.439	0.485	0.453	0.499	0.509	0.471	0.446	0.482	0.426	0.469	0.385	0.447
476																																																																																					0.440	0.486	0.454	0.501	0.510	0.473	0.446	0.483	0.427	0.469	0.385	0.448
477																																																																																					0.441	0.488	0.456	0.502	0.511	0.474	0.448	0.484	0.428	0.470	0.386	0.449
478																																																																																					0.442	0.489	0.457	0.503	0.512	0.475	0.448	0.485	0.429	0.471	0.387	0.450
479																																																																																					0.444	0.491	0.458	0.505	0.514	0.476	0.450	0.487	0.431	0.473	0.388	0.451
480																																																																																					0.446	0.492	0.460	0.507	0.516	0.478	0.451	0.488	0.432	0.474	0.389	0.453
481																																																																																					0.448	0.494	0.462	0.509	0.519	0.480	0.454	0.491	0.434	0.476	0.391	0.455
482																																																																																					0.450	0.497	0.465	0.512	0.521	0.483	0.456	0.493	0.435	0.478	0.393	0.457
483																																																																																					0.452	0.499	0.467	0.515	0.523	0.485	0.458	0.495	0.437	0.479	0.394	0.459
484																																																																																					0.454	0.502	0.469	0.517	0.526	0.487	0.459	0.497	0.439	0.481	0.396	0.461
485																																																																																					0.456	0.504	0.471	0.519	0.528	0.489	0.461	0.499	0.441	0.483	0.397	0.463
486																																																																																					0.459	0.506	0.473	0.521	0.531	0.492	0.463	0.501	0.443	0.486	0.399	0.465
487																																																																																					0.462	0.510	0.476	0.525	0.535	0.495	0.466	0.505	0.446	0.489	0.401	0.468
488																																																																																					0.465	0.513	0.480	0.529	0.538	0.498	0.469	0.508	0.449	0.492	0.404	0.471
489																																																																																					0.469	0.517	0.483	0.532	0.542	0.502	0.472	0.512	0.452	0.494	0.407	0.474
490																																																																																					0.472	0.521	0.487	0.537	0.546	0.506	0.476	0.516	0.455	0.498	0.409	0.478
491																																																																																					0.477	0.526	0.491	0.542	0.551	0.510	0.480	0.520	0.459	0.502	0.413	0.482
492																																																																																					0.481	0.530	0.495	0.546	0.556	0.514	0.483	0.524	0.462	0.505	0.415	0.485
493																																																																																					0.485	0.534	0.499	0.550	0.560	0.518	0.487	0.528	0.465	0.509	0.418	0.489
494																																																																																					0.489	0.539	0.504	0.555	0.566	0.523	0.491	0.533	0.469	0.513	0.422	0.493
495																																																																																					0.495	0.545	0.510	0.562	0.572	0.529	0.496	0.538	0.474	0.518	0.426	0.498
496																																																																																					0.500	0.550	0.514	0.568	0.578	0.534	0.501	0.543	0.478	0.522	0.429	0.502
497																																																																																					0.506	0.557	0.520	0.574	0.584	0.539	0.506	0.549	0.483	0.527	0.434	0.508
498																																																																																					0.511	0.562	0.525	0.580	0.590	0.545	0.510	0.554	0.487	0.532	0.438	0.512
499																																																																																					0.515	0.567	0.530	0.585	0.595	0.549	0.514	0.558	0.490	0.536	0.441	0.516
500																																																																																					0.521	0.573	0.535	0.591	0.601	0.555	0.519	0.564	0.495	0.540	0.445	0.521
501																																																																																					0.526	0.578	0.541	0.597	0.607	0.560	0.524	0.569	0.499	0.545	0.448	0.525
502																																																																																					0.532	0.585	0.546	0.603	0.613	0.566	0.528	0.574	0.503	0.549	0.452	0.530
503																																																																																					0.537	0.590	0.551	0.609	0.619	0.571	0.533	0.579	0.508	0.554	0.456	0.535
504																																																																																					0.543	0.597	0.557	0.615	0.625	0.577	0.538	0.584	0.512	0.559	0.460	0.540
505																																																																																					0.547	0.601	0.561	0.620	0.630	0.581	0.541	0.588	0.515	0.562	0.463	0.543
506																																																																																					0.552	0.606	0.567	0.626	0.636	0.586	0.545	0.593	0.519	0.566	0.466	0.547
507																																																																																					0.557	0.611	0.571	0.631	0.641	0.590	0.549	0.597	0.523	0.569	0.469	0.551
508																																																																																					0.561	0.616	0.575	0.636	0.645	0.594	0.553	0.601	0.526	0.573	0.472	0.555
509																																																																																					0.565	0.620	0.579	0.640	0.650	0.598	0.556	0.604	0.529	0.576	0.474	0.558
510																																																																																					0.569	0.624	0.583	0.644	0.654	0.602	0.559	0.607	0.531	0.579	0.477	0.560
511																																																																																					0.572	0.628	0.586	0.648	0.657	0.605	0.561	0.610	0.533	0.581	0.478	0.563
512																																																																																					0.575	0.630	0.589	0.651	0.661	0.607	0.563	0.612	0.535	0.582	0.480	0.565
513																																																																																					0.578	0.633	0.591	0.653	0.663	0.609	0.564	0.613	0.536	0.584	0.481	0.566
514																																																																																					0.580	0.635	0.593	0.655	0.665	0.610	0.565	0.614	0.537	0.585	0.482	0.567
515																																																																																					0.581	0.636	0.593	0.657	0.666	0.611	0.566	0.614	0.537	0.585	0.482	0.567
516																																																																																					0.582	0.637	0.594	0.658	0.667	0.612	0.566	0.615	0.537	0.585	0.482	0.568
517																																																																																					0.582	0.637	0.595	0.658	0.667	0.612	0.566	0.614	0.537	0.584	0.482	0.567
518																																																																																					0.583	0.637	0.595	0.658	0.667	0.611	0.565	0.613	0.536	0.584	0.482	0.566
519																																																																																					0.582	0.637	0.594	0.658	0.666	0.611	0.564	0.612	0.535	0.583	0.481	0.565
520																																																																																					0.582	0.636	0.593	0.657	0.665	0.610	0.563	0.611	0.534	0.581	0.480	0.564
521																																																																																					0.581	0.635	0.592	0.656	0.664	0.608	0.562	0.609	0.533	0.580	0.478	0.563
522																																																																																					0.579	0.633	0.590	0.654	0.662	0.606	0.560	0.606	0.530	0.577	0.477	0.560
523																																																																																					0.577	0.630	0.588	0.652	0.659	0.604	0.557	0.603	0.528	0.574	0.474	0.557
524																																																																																					0.575	0.628	0.585	0.649	0.657	0.601	0.554	0.600	0.525	0.571	0.472	0.554
525																																																																																					0.573	0.625	0.583	0.647	0.654	0.598	0.552	0.597	0.522	0.568	0.470	0.552
526																																																																																					0.570	0.622	0.580	0.643	0.650	0.594	0.548	0.593	0.519	0.565	0.467	0.548
527																																																																																					0.566	0.618	0.576	0.639	0.646	0.590	0.544	0.588	0.515	0.561	0.464	0.544
528																																																																																					0.564	0.615	0.573	0.636	0.643	0.587	0.541	0.585	0.512	0.557	0.461	0.541
529																																																																																					0.561	0.612	0.570	0.633	0.639	0.584	0.538	0.581	0.509	0.554	0.458	0.538
530																																																																																					0.558	0.609	0.567	0.630	0.636	0.580	0.535	0.577	0.506	0.551	0.456	0.534
531																																																																																					0.554	0.604	0.563	0.626	0.631	0.576	0.531	0.573	0.503	0.547	0.453	0.530
532																																																																																					0.549	0.599	0.558	0.620	0.626	0.571	0.525	0.567	0.497	0.542	0.448	0.525
533																																																																																					0.545	0.594	0.553	0.615	0.620	0.566	0.521	0.561	0.493	0.537	0.444	0.520
534																																																																																					0.541	0.589	0.549	0.610	0.615	0.561	0.516	0.556	0.489	0.532	0.440	0.515
535																																																																																					0.537	0.585	0.544	0.605	0.610	0.556	0.512	0.551	0.484	0.527	0.436	0.510
536																																																																																					0.533	0.580	0.540	0.600	0.605	0.551	0.507	0.546	0.480	0.523	0.433	0.506
537																																																																																					0.528	0.575	0.535	0.595	0.599	0.546	0.502	0.540	0.475	0.518	0.428	0.501
538																																																																																					0.523	0.569	0.530	0.589	0.594	0.541	0.497	0.534	0.470	0.512	0.424	0.495
539																																																																																					0.518	0.563	0.524	0.583	0.587	0.535	0.491	0.528	0.465	0.506	0.419	0.489
540																																																																																					0.513	0.557	0.519	0.577	0.581	0.529	0.486	0.521	0.459	0.500	0.414	0.483
541																																																																																					0.508	0.552	0.514	0.571	0.575	0.524	0.480	0.516	0.454	0.496	0.410	0.478
542																																																																																					0.504	0.547	0.509	0.567	0.570	0.519	0.476	0.510	0.450	0.491	0.406	0.473
543																																																																																					0.500	0.543	0.505	0.561	0.565	0.514	0.471	0.505	0.446	0.487	0.403	0.469
544																																																																																					0.495	0.537	0.499	0.555	0.559	0.509	0.466	0.499	0.441	0.481	0.398	0.463
545																																																																																					0.490	0.531	0.494	0.549	0.552	0.503	0.460	0.493	0.435	0.475	0.393	0.458
546																																																																																					0.485	0.526	0.488	0.543	0.546	0.497	0.454	0.486	0.430	0.470	0.388	0.452
547																																																																																					0.481	0.520	0.483	0.537	0.540	0.491	0.449	0.480	0.425	0.464	0.384	0.446
548																																																																																					0.477	0.516	0.479	0.532	0.535	0.487	0.444	0.475	0.420	0.460	0.380	0.442
549																																																																																					0.473	0.511	0.474	0.527	0.529	0.482	0.439	0.469	0.416	0.455	0.376	0.437
550																																																																																					0.468	0.506	0.469	0.521	0.523	0.477	0.433	0.464	0.411	0.449	0.372	0.431
551																																																																																					0.464	0.500	0.464	0.515	0.517	0.472	0.428	0.457	0.406	0.444	0.367	0.426
552																																																																																					0.459	0.495	0.459	0.509	0.511	0.466	0.423	0.452	0.401	0.438	0.363	0.420
553																																																																																					0.455	0.490	0.454	0.504	0.506	0.462	0.418	0.446	0.396	0.433	0.358	0.415
554																																																																																					0.451	0.486	0.449	0.498	0.500	0.457	0.413	0.441	0.391	0.428	0.354	0.410
555																																																																																					0.448	0.481	0.445	0.493	0.495	0.452	0.408	0.435	0.387	0.424	0.350	0.405
556																																																																																					0.444	0.476	0.440	0.488	0.490	0.447	0.403	0.430	0.382	0.419	0.346	0.400
557																																																																																					0.440	0.472	0.436	0.483	0.485	0.443	0.398	0.424	0.378	0.414	0.342	0.395
558																																																																																					0.436	0.467	0.431	0.477	0.479	0.438	0.393	0.419	0.373	0.409	0.338	0.390
559																																																																																					0.433	0.463	0.427	0.472	0.474	0.434	0.388	0.413	0.368	0.404	0.334	0.385
560																																																																																					0.430	0.460	0.423	0.468	0.470	0.430	0.384	0.409	0.365	0.400	0.331	0.381
561																																																																																					0.427	0.456	0.420	0.464	0.465	0.426	0.379	0.404	0.360	0.396	0.327	0.376
562																																																																																					0.424	0.452	0.416	0.460	0.461	0.422	0.375	0.400	0.357	0.392	0.324	0.372
563																																																																																					0.421	0.449	0.413	0.456	0.458	0.419	0.371	0.396	0.353	0.388	0.321	0.369
564																																																																																					0.419	0.446	0.410	0.452	0.454	0.416	0.368	0.392	0.350	0.384	0.318	0.365
565																																																																																					0.417	0.443	0.407	0.448	0.450	0.412	0.364	0.387	0.346	0.380	0.314	0.361
566																																																																																					0.415	0.440	0.404	0.445	0.446	0.410	0.360	0.383	0.343	0.377	0.311	0.357
567																																																																																					0.413	0.438	0.401	0.442	0.443	0.407	0.356	0.379	0.339	0.373	0.309	0.354
568																																																																																					0.411	0.435	0.399	0.439	0.440	0.404	0.353	0.376	0.336	0.370	0.306	0.350
569																																																																																					0.410	0.433	0.396	0.436	0.437	0.402	0.350	0.372	0.333	0.367	0.303	0.347
570																																																																																					0.409	0.431	0.394	0.433	0.434	0.400	0.347	0.369	0.331	0.364	0.301	0.344
571																																																																																					0.407	0.429	0.392	0.431	0.432	0.398	0.344	0.366	0.328	0.361	0.298	0.341
572																																																																																					0.407	0.427	0.390	0.428	0.430	0.396	0.341	0.363	0.325	0.358	0.296	0.338
573																																																																																					0.406	0.426	0.389	0.427	0.428	0.394	0.339	0.360	0.323	0.356	0.294	0.336
574																																																																																					0.406	0.425	0.388	0.425	0.426	0.393	0.336	0.357	0.321	0.353	0.292	0.333
575																																																																																					0.406	0.424	0.386	0.423	0.424	0.391	0.334	0.355	0.318	0.351	0.290	0.331
576																																																																																					0.406	0.424	0.386	0.422	0.423	0.390	0.332	0.353	0.317	0.349	0.288	0.329
577																																																																																					0.406	0.423	0.385	0.421	0.422	0.389	0.330	0.351	0.315	0.347	0.287	0.327
578																																																																																					0.406	0.423	0.384	0.420	0.421	0.389	0.328	0.348	0.313	0.345	0.285	0.325
579																																																																																					0.407	0.423	0.384	0.419	0.420	0.388	0.326	0.347	0.311	0.344	0.284	0.323
580																																																																																					0.408	0.423	0.383	0.419	0.419	0.388	0.324	0.345	0.309	0.342	0.282	0.321
581																																																																																					0.409	0.423	0.383	0.419	0.419	0.388	0.323	0.343	0.308	0.341	0.281	0.320
582																																																																																					0.410	0.424	0.384	0.419	0.419	0.388	0.321	0.342	0.307	0.339	0.280	0.319
583																																																																																					0.412	0.424	0.384	0.419	0.419	0.388	0.320	0.341	0.305	0.338	0.279	0.317
584																																																																																					0.414	0.426	0.384	0.419	0.419	0.389	0.319	0.340	0.304	0.337	0.278	0.316
585																																																																																					0.416	0.427	0.385	0.420	0.420	0.390	0.318	0.339	0.304	0.336	0.277	0.315
586																																																																																					0.418	0.428	0.387	0.421	0.421	0.391	0.318	0.338	0.303	0.336	0.277	0.315
587																																																																																					0.421	0.430	0.388	0.422	0.422	0.392	0.317	0.338	0.302	0.335	0.276	0.314
588																																																																																					0.423	0.432	0.389	0.423	0.423	0.394	0.317	0.337	0.302	0.335	0.276	0.314
589																																																																																					0.426	0.434	0.391	0.425	0.425	0.395	0.316	0.337	0.302	0.335	0.276	0.314
590																																																																																					0.429	0.437	0.393	0.427	0.427	0.397	0.316	0.337	0.302	0.335	0.276	0.314
591																																																																																					0.433	0.440	0.395	0.429	0.429	0.400	0.316	0.338	0.302	0.335	0.276	0.314
592																																																																																					0.437	0.443	0.397	0.432	0.431	0.402	0.317	0.338	0.302	0.335	0.276	0.314
593																																																																																					0.441	0.446	0.400	0.434	0.433	0.405	0.317	0.339	0.302	0.336	0.276	0.314
594																																																																																					0.445	0.449	0.403	0.437	0.436	0.407	0.317	0.339	0.303	0.336	0.277	0.315
595																																																																																					0.450	0.453	0.406	0.441	0.440	0.411	0.318	0.341	0.303	0.337	0.277	0.316
596																																																																																					0.454	0.457	0.409	0.444	0.443	0.414	0.319	0.342	0.304	0.338	0.278	0.317
597																																																																																					0.458	0.461	0.412	0.447	0.446	0.417	0.320	0.343	0.305	0.339	0.279	0.318
598																																																																																					0.463	0.465	0.416	0.451	0.450	0.421	0.321	0.344	0.306	0.340	0.279	0.319
599																																																																																					0.469	0.470	0.420	0.455	0.454	0.425	0.322	0.346	0.307	0.342	0.281	0.320
600																																																																																					0.475	0.475	0.424	0.460	0.459	0.430	0.324	0.348	0.309	0.343	0.282	0.322
601																																																																																					0.482	0.481	0.429	0.465	0.464	0.435	0.326	0.350	0.310	0.345	0.283	0.324
602																																																																																					0.489	0.487	0.435	0.471	0.470	0.441	0.328	0.353	0.312	0.347	0.285	0.326
603																																																																																					0.495	0.493	0.440	0.476	0.475	0.445	0.330	0.355	0.314	0.349	0.286	0.328
604																																																																																					0.501	0.499	0.445	0.481	0.480	0.451	0.332	0.357	0.316	0.351	0.288	0.330
605																																																																																					0.507	0.504	0.449	0.486	0.484	0.455	0.334	0.360	0.318	0.353	0.290	0.332
606																																																																																					0.513	0.510	0.454	0.491	0.490	0.461	0.336	0.362	0.320	0.356	0.292	0.335
607																																																																																					0.520	0.516	0.460	0.497	0.496	0.466	0.339	0.365	0.322	0.359	0.294	0.337
608																																																																																					0.528	0.524	0.467	0.504	0.503	0.473	0.342	0.369	0.325	0.362	0.296	0.340
609																																																																																					0.536	0.531	0.473	0.511	0.510	0.480	0.345	0.372	0.327	0.365	0.298	0.343
610																																																																																					0.544	0.539	0.480	0.518	0.517	0.487	0.348	0.376	0.330	0.368	0.301	0.347
611																																																																																					0.551	0.546	0.486	0.524	0.523	0.493	0.351	0.380	0.333	0.371	0.304	0.350
612																																																																																					0.560	0.554	0.493	0.532	0.531	0.500	0.354	0.384	0.336	0.375	0.306	0.353
613																																																																																					0.568	0.563	0.500	0.540	0.539	0.508	0.358	0.388	0.340	0.378	0.310	0.357
614																																																																																					0.577	0.572	0.508	0.549	0.547	0.516	0.362	0.393	0.343	0.382	0.313	0.361
615																																																																																					0.586	0.581	0.516	0.557	0.556	0.524	0.366	0.398	0.347	0.387	0.316	0.365
616																																																																																					0.596	0.590	0.525	0.566	0.565	0.533	0.371	0.403	0.351	0.391	0.320	0.370
617																																																																																					0.605	0.599	0.533	0.575	0.574	0.542	0.375	0.408	0.355	0.396	0.324	0.375
618																																																																																					0.615	0.609	0.541	0.585	0.584	0.551	0.380	0.414	0.360	0.400	0.328	0.380
619																																																																																					0.624	0.618	0.550	0.594	0.593	0.559	0.385	0.419	0.364	0.405	0.332	0.385
620																																																																																					0.635	0.629	0.560	0.604	0.604	0.570	0.391	0.426	0.370	0.411	0.336	0.390
621																																																																																					0.645	0.640	0.570	0.615	0.614	0.580	0.396	0.433	0.375	0.417	0.341	0.396
622																																																																																					0.655	0.651	0.580	0.625	0.625	0.590	0.402	0.439	0.380	0.423	0.346	0.402
623																																																																																					0.666	0.662	0.590	0.636	0.636	0.601	0.408	0.446	0.386	0.429	0.350	0.408
624																																																																																					0.676	0.673	0.600	0.646	0.647	0.611	0.414	0.453	0.391	0.435	0.355	0.414
625																																																																																					0.684	0.682	0.608	0.656	0.656	0.620	0.420	0.459	0.396	0.440	0.360	0.420
626																																																																																					0.695	0.693	0.618	0.667	0.667	0.631	0.426	0.467	0.402	0.447	0.365	0.427
627																																																																																					0.705	0.704	0.629	0.678	0.679	0.642	0.433	0.475	0.408	0.454	0.371	0.434
628																																																																																					0.715	0.715	0.639	0.689	0.690	0.653	0.439	0.482	0.414	0.460	0.376	0.440
629																																																																																					0.725	0.727	0.650	0.700	0.702	0.664	0.446	0.490	0.421	0.467	0.382	0.447
630																																																																																					0.736	0.738	0.661	0.712	0.714	0.675	0.454	0.499	0.428	0.475	0.388	0.455
631																																																																																					0.747	0.751	0.672	0.724	0.727	0.688	0.462	0.508	0.435	0.483	0.395	0.463
632																																																																																					0.757	0.762	0.683	0.737	0.740	0.700	0.469	0.517	0.442	0.491	0.401	0.471
633																																																																																					0.767	0.774	0.694	0.749	0.752	0.712	0.478	0.526	0.449	0.499	0.408	0.479
634																																																																																					0.778	0.787	0.705	0.761	0.765	0.724	0.486	0.535	0.457	0.507	0.414	0.488
635																																																																																					0.789	0.799	0.718	0.774	0.778	0.736	0.495	0.546	0.465	0.516	0.422	0.497
636																																																																																					0.799	0.811	0.729	0.786	0.791	0.749	0.503	0.556	0.473	0.525	0.429	0.505
637																																																																																					0.809	0.824	0.741	0.799	0.804	0.761	0.512	0.566	0.481	0.534	0.436	0.515
638																																																																																					0.820	0.837	0.753	0.812	0.818	0.774	0.522	0.577	0.490	0.544	0.444	0.524
639																																																																																					0.831	0.850	0.765	0.826	0.832	0.788	0.532	0.588	0.499	0.553	0.452	0.535
640																																																																																					0.841	0.862	0.778	0.839	0.847	0.801	0.542	0.600	0.508	0.564	0.461	0.544
641																																																																																					0.851	0.875	0.790	0.852	0.861	0.814	0.552	0.611	0.518	0.574	0.469	0.555
642																																																																																					0.862	0.888	0.803	0.866	0.875	0.828	0.563	0.623	0.528	0.585	0.477	0.566
643																																																																																					0.871	0.901	0.815	0.879	0.889	0.841	0.573	0.635	0.538	0.595	0.486	0.577
644																																																																																					0.881	0.913	0.827	0.892	0.903	0.854	0.584	0.648	0.548	0.606	0.495	0.588
645																																																																																					0.891	0.926	0.840	0.906	0.918	0.868	0.596	0.661	0.558	0.618	0.505	0.600
646																																																																																					0.900	0.938	0.852	0.919	0.932	0.881	0.607	0.673	0.569	0.629	0.514	0.611
647																																																																																					0.910	0.951	0.865	0.933	0.947	0.895	0.619	0.687	0.580	0.641	0.524	0.623
648																																																																																					0.919	0.963	0.877	0.946	0.961	0.908	0.631	0.700	0.591	0.653	0.534	0.635
649																																																																																					0.927	0.976	0.889	0.960	0.976	0.922	0.643	0.715	0.603	0.666	0.545	0.648
650																																																																																					0.936	0.987	0.901	0.973	0.990	0.935	0.655	0.728	0.614	0.678	0.555	0.661
651																																																																																					0.944	0.999	0.913	0.986	1.004	0.949	0.668	0.742	0.625	0.691	0.565	0.673
652																																																																																					0.951	1.009	0.924	0.998	1.017	0.960	0.680	0.755	0.636	0.702	0.575	0.685
653																																																																																					0.957	1.018	0.934	1.009	1.028	0.971	0.690	0.768	0.647	0.713	0.584	0.697
654																																																																																					0.965	1.029	0.945	1.021	1.042	0.983	0.703	0.782	0.658	0.726	0.594	0.709
655																																																																																					0.971	1.040	0.956	1.033	1.055	0.996	0.716	0.797	0.671	0.739	0.606	0.723
656																																																																																					0.978	1.051	0.967	1.046	1.069	1.008	0.730	0.812	0.684	0.753	0.617	0.737
657																																																																																					0.984	1.061	0.978	1.058	1.083	1.021	0.744	0.827	0.697	0.767	0.628	0.751
658																																																																																					0.989	1.070	0.988	1.069	1.095	1.032	0.757	0.843	0.709	0.780	0.640	0.765
659																																																																																					0.995	1.080	0.998	1.080	1.107	1.044	0.770	0.858	0.722	0.795	0.651	0.779
660																																																																																					0.999	1.088	1.007	1.090	1.119	1.054	0.782	0.871	0.733	0.807	0.661	0.792
661																																																																																					1.003	1.096	1.016	1.101	1.131	1.065	0.797	0.887	0.747	0.821	0.673	0.806
662																																																																																					1.007	1.104	1.025	1.111	1.142	1.076	0.810	0.902	0.760	0.835	0.685	0.821
663																																																																																					1.010	1.111	1.034	1.121	1.153	1.086	0.824	0.918	0.773	0.849	0.697	0.835
664																																																																																					1.013	1.118	1.042	1.130	1.163	1.096	0.838	0.933	0.786	0.863	0.708	0.849
665																																																																																					1.015	1.124	1.049	1.138	1.173	1.105	0.851	0.948	0.798	0.877	0.719	0.862
666																																																																																					1.016	1.129	1.056	1.145	1.181	1.112	0.863	0.962	0.810	0.889	0.730	0.875
667																																																																																					1.018	1.135	1.062	1.153	1.191	1.121	0.877	0.978	0.824	0.903	0.742	0.890
668																																																																																					1.018	1.140	1.069	1.161	1.200	1.129	0.891	0.993	0.837	0.917	0.753	0.904
669																																																																																					1.019	1.144	1.074	1.167	1.208	1.136	0.904	1.007	0.849	0.930	0.764	0.917
670																																																																																					1.018	1.147	1.079	1.174	1.215	1.143	0.916	1.022	0.862	0.944	0.775	0.931
671																																																																																					1.018	1.151	1.084	1.179	1.222	1.149	0.929	1.036	0.874	0.956	0.786	0.944
672																																																																																					1.016	1.153	1.088	1.184	1.227	1.154	0.941	1.049	0.885	0.968	0.796	0.956
673																																																																																					1.015	1.155	1.091	1.188	1.233	1.159	0.953	1.063	0.897	0.981	0.806	0.969
674																																																																																					1.013	1.156	1.095	1.192	1.239	1.164	0.966	1.077	0.910	0.995	0.817	0.982
675																																																																																					1.010	1.157	1.097	1.196	1.243	1.168	0.978	1.090	0.921	1.007	0.828	0.994
676																																																																																					1.007	1.157	1.099	1.199	1.247	1.171	0.989	1.103	0.932	1.019	0.837	1.007
677																																																																																					1.004	1.157	1.101	1.201	1.250	1.174	1.000	1.115	0.943	1.030	0.847	1.019
678																																																																																					1.000	1.157	1.101	1.202	1.253	1.176	1.011	1.128	0.954	1.041	0.856	1.030
679																																																																																					0.996	1.155	1.102	1.204	1.256	1.178	1.021	1.140	0.964	1.052	0.865	1.041
680																																																																																					0.992	1.154	1.102	1.204	1.257	1.179	1.032	1.152	0.975	1.063	0.874	1.052
681																																																																																					0.987	1.152	1.102	1.204	1.258	1.180	1.042	1.163	0.985	1.074	0.883	1.063
682																																																																																					0.982	1.150	1.101	1.204	1.259	1.180	1.052	1.174	0.994	1.083	0.891	1.072
683																																																																																					0.977	1.147	1.100	1.203	1.259	1.179	1.060	1.184	1.003	1.093	0.899	1.082
684																																																																																					0.971	1.143	1.098	1.202	1.258	1.179	1.069	1.193	1.012	1.101	0.906	1.091
685																																																																																					0.965	1.140	1.096	1.200	1.257	1.177	1.078	1.203	1.021	1.111	0.914	1.100
686																																																																																					0.958	1.135	1.093	1.197	1.256	1.175	1.087	1.213	1.030	1.120	0.921	1.109
687																																																																																					0.951	1.131	1.090	1.195	1.254	1.173	1.095	1.222	1.038	1.128	0.928	1.118
688																																																																																					0.944	1.126	1.087	1.192	1.251	1.170	1.103	1.231	1.046	1.136	0.935	1.125
689																																																																																					0.937	1.121	1.083	1.188	1.248	1.167	1.110	1.238	1.053	1.143	0.941	1.133
690																																																																																					0.930	1.115	1.079	1.184	1.245	1.163	1.116	1.246	1.060	1.150	0.947	1.140
691																																																																																					0.923	1.110	1.075	1.180	1.241	1.160	1.122	1.252	1.066	1.156	0.952	1.146
692																																																																																					0.916	1.104	1.071	1.175	1.238	1.156	1.128	1.259	1.072	1.162	0.957	1.152
693																																																																																					0.908	1.097	1.066	1.170	1.233	1.151	1.134	1.265	1.078	1.168	0.962	1.158
694																																																																																					0.900	1.091	1.061	1.165	1.228	1.146	1.139	1.271	1.083	1.174	0.967	1.163
695																																																																																					0.892	1.085	1.056	1.159	1.223	1.141	1.144	1.276	1.089	1.179	0.971	1.168
696																																																																																					0.883	1.077	1.049	1.153	1.217	1.135	1.148	1.281	1.093	1.183	0.975	1.173
697																																																																																					0.875	1.069	1.043	1.146	1.211	1.129	1.153	1.286	1.098	1.188	0.979	1.177
698																																																																																					0.867	1.062	1.037	1.141	1.206	1.123	1.156	1.289	1.102	1.192	0.981	1.181
699																																																																																					0.859	1.055	1.031	1.134	1.199	1.117	1.160	1.293	1.106	1.195	0.985	1.185
700																																																																																					0.852	1.048	1.025	1.128	1.193	1.111	1.162	1.296	1.109	1.198	0.987	1.187
701																																																																																					0.843	1.040	1.019	1.121	1.187	1.104	1.165	1.298	1.112	1.200	0.989	1.190
702																																																																																					0.834	1.032	1.011	1.113	1.179	1.097	1.167	1.301	1.115	1.202	0.991	1.192
703																																																																																					0.825	1.022	1.004	1.105	1.171	1.089	1.169	1.303	1.117	1.205	0.993	1.194
704																																																																																					0.816	1.014	0.996	1.097	1.164	1.082	1.171	1.304	1.120	1.206	0.995	1.196
705																																																																																					0.808	1.006	0.988	1.088	1.156	1.075	1.171	1.305	1.121	1.208	0.996	1.197
706																																																																																					0.799	0.998	0.981	1.080	1.148	1.067	1.172	1.306	1.123	1.209	0.997	1.198
707																																																																																					0.791	0.989	0.973	1.072	1.140	1.059	1.173	1.307	1.124	1.210	0.998	1.199
708																																																																																					0.782	0.980	0.965	1.063	1.131	1.050	1.173	1.307	1.125	1.210	0.998	1.199
709																																																																																					0.773	0.971	0.956	1.054	1.122	1.042	1.173	1.306	1.126	1.210	0.998	1.199
710																																																																																					0.764	0.962	0.948	1.046	1.114	1.034	1.172	1.306	1.126	1.210	0.998	1.198
711																																																																																					0.755	0.952	0.940	1.037	1.105	1.025	1.171	1.304	1.126	1.209	0.997	1.197
712																																																																																					0.747	0.943	0.932	1.028	1.096	1.017	1.171	1.303	1.125	1.208	0.997	1.196
713																																																																																					0.738	0.933	0.923	1.019	1.087	1.008	1.169	1.301	1.124	1.207	0.996	1.195
714																																																																																					0.729	0.923	0.914	1.010	1.077	0.999	1.167	1.299	1.123	1.205	0.994	1.193
715																																																																																					0.720	0.913	0.905	1.000	1.067	0.990	1.165	1.296	1.121	1.202	0.992	1.190
716																																																																																					0.712	0.904	0.896	0.991	1.058	0.981	1.162	1.293	1.119	1.200	0.990	1.188
717																																																																																					0.703	0.894	0.887	0.981	1.048	0.971	1.159	1.290	1.117	1.197	0.988	1.185
718																																																																																					0.695	0.884	0.878	0.973	1.038	0.962	1.157	1.286	1.115	1.194	0.986	1.182
719																																																																																					0.686	0.874	0.869	0.962	1.028	0.953	1.153	1.282	1.112	1.190	0.983	1.179
720																																																																																					0.677	0.864	0.860	0.953	1.018	0.944	1.149	1.277	1.109	1.187	0.980	1.175
721																																																																																					0.668	0.854	0.850	0.943	1.007	0.933	1.145	1.273	1.105	1.182	0.976	1.171
722																																																																																					0.659	0.843	0.841	0.932	0.996	0.923	1.140	1.267	1.101	1.178	0.973	1.166
723																																																																																					0.650	0.833	0.831	0.922	0.986	0.913	1.135	1.262	1.097	1.173	0.969	1.161
724																																																																																					0.642	0.823	0.821	0.912	0.975	0.903	1.130	1.256	1.093	1.168	0.965	1.156
725																																																																																					0.633	0.813	0.812	0.902	0.964	0.893	1.125	1.250	1.088	1.163	0.960	1.151
726																																																																																					0.625	0.803	0.802	0.892	0.954	0.884	1.119	1.244	1.083	1.157	0.956	1.145
727																																																																																					0.617	0.793	0.793	0.881	0.943	0.873	1.113	1.238	1.078	1.151	0.951	1.139
728																																																																																					0.609	0.783	0.783	0.872	0.932	0.863	1.107	1.231	1.073	1.145	0.946	1.133
729																																																																																					0.600	0.773	0.774	0.861	0.921	0.853	1.101	1.224	1.067	1.139	0.941	1.127
730																																																																																					0.593	0.764	0.765	0.852	0.912	0.844	1.094	1.217	1.062	1.133	0.936	1.121
731																																																																																					0.585	0.754	0.756	0.841	0.901	0.834	1.087	1.209	1.056	1.126	0.930	1.114
732																																																																																					0.577	0.745	0.747	0.832	0.891	0.824	1.081	1.202	1.050	1.120	0.925	1.107
733																																																																																					0.570	0.736	0.738	0.822	0.880	0.815	1.074	1.194	1.044	1.113	0.919	1.101
734																																																																																					0.563	0.727	0.730	0.813	0.871	0.806	1.067	1.188	1.038	1.107	0.914	1.094
735																																																																																					0.555	0.718	0.721	0.803	0.861	0.796	1.060	1.179	1.032	1.100	0.908	1.087
736																																																																																					0.548	0.708	0.712	0.794	0.849	0.786	1.052	1.171	1.025	1.092	0.902	1.079
737																																																																																					0.540	0.699	0.703	0.783	0.839	0.777	1.044	1.163	1.018	1.084	0.895	1.071
738																																																																																					0.532	0.689	0.693	0.773	0.828	0.766	1.036	1.152	1.010	1.076	0.888	1.062
739																																																																																					0.525	0.680	0.683	0.763	0.817	0.756	1.027	1.143	1.002	1.068	0.881	1.054
740																																																																																					0.518	0.671	0.675	0.754	0.807	0.747	1.020	1.135	0.995	1.060	0.874	1.046
741																																																																																					0.511	0.662	0.666	0.744	0.797	0.738	1.011	1.126	0.988	1.052	0.867	1.038
742																																																																																					0.504	0.654	0.657	0.735	0.787	0.729	1.003	1.117	0.980	1.043	0.861	1.029
743																																																																																					0.497	0.645	0.649	0.726	0.777	0.719	0.995	1.107	0.973	1.035	0.854	1.020
744																																																																																					0.490	0.637	0.640	0.716	0.767	0.710	0.986	1.098	0.965	1.026	0.846	1.012
745																																																																																					0.484	0.628	0.632	0.707	0.757	0.701	0.978	1.089	0.957	1.018	0.839	1.003
746																																																																																					0.477	0.620	0.624	0.698	0.748	0.692	0.969	1.079	0.949	1.010	0.832	0.994
747																																																																																					0.471	0.612	0.615	0.689	0.738	0.683	0.960	1.069	0.941	1.000	0.825	0.986
748																																																																																					0.465	0.604	0.608	0.680	0.729	0.674	0.952	1.060	0.933	0.992	0.818	0.977
749																																																																																					0.458	0.595	0.599	0.671	0.719	0.665	0.943	1.050	0.925	0.983	0.810	0.968
750																																																																																					0.452	0.588	0.591	0.662	0.709	0.657	0.934	1.041	0.917	0.974	0.802	0.959
751																																																																																					0.446	0.580	0.584	0.654	0.700	0.648	0.926	1.032	0.909	0.966	0.795	0.950
752																																																																																					0.441	0.573	0.577	0.646	0.692	0.640	0.917	1.023	0.901	0.958	0.789	0.942
753																																																																																					0.435	0.566	0.570	0.638	0.683	0.632	0.909	1.014	0.894	0.950	0.782	0.933
754																																																																																					0.430	0.559	0.563	0.630	0.675	0.625	0.901	1.004	0.886	0.941	0.775	0.924
755																																																																																					0.424	0.551	0.555	0.622	0.666	0.616	0.892	0.994	0.878	0.932	0.767	0.915
756																																																																																					0.418	0.544	0.548	0.614	0.657	0.609	0.883	0.985	0.870	0.923	0.759	0.906
757																																																																																					0.413	0.537	0.540	0.606	0.648	0.601	0.875	0.975	0.862	0.914	0.752	0.897
758																																																																																					0.407	0.530	0.533	0.598	0.640	0.593	0.867	0.966	0.853	0.906	0.745	0.889
759																																																																																					0.402	0.523	0.526	0.590	0.632	0.585	0.857	0.956	0.845	0.897	0.737	0.879
760																																																																																					0.397	0.516	0.520	0.583	0.624	0.577	0.849	0.946	0.837	0.888	0.730	0.870
761																																																																																					0.391	0.509	0.512	0.574	0.615	0.569	0.839	0.936	0.828	0.878	0.722	0.861
762																																																																																					0.386	0.502	0.505	0.566	0.606	0.561	0.830	0.925	0.819	0.869	0.714	0.851
763																																																																																					0.380	0.495	0.497	0.558	0.597	0.553	0.820	0.915	0.811	0.859	0.706	0.841
764																																																																																					0.376	0.489	0.492	0.552	0.591	0.547	0.813	0.907	0.804	0.852	0.700	0.834
765																																																																																					0.372	0.484	0.487	0.547	0.585	0.541	0.807	0.900	0.798	0.846	0.695	0.828
766																																																																																					0.368	0.478	0.481	0.541	0.578	0.535	0.799	0.891	0.790	0.838	0.688	0.820
767																																																																																					0.363	0.472	0.475	0.534	0.570	0.528	0.791	0.881	0.782	0.829	0.681	0.810
768																																																																																					0.359	0.466	0.469	0.526	0.562	0.521	0.782	0.872	0.774	0.820	0.673	0.802
769																																																																																					0.354	0.460	0.463	0.519	0.555	0.514	0.773	0.862	0.765	0.811	0.666	0.793
770																																																																																					0.350	0.454	0.456	0.512	0.547	0.507	0.765	0.853	0.757	0.802	0.659	0.784
771																																																																																					0.346	0.449	0.451	0.506	0.541	0.501	0.757	0.844	0.750	0.795	0.652	0.776
772																																																																																					0.342	0.443	0.445	0.500	0.534	0.495	0.749	0.835	0.743	0.787	0.646	0.768
773																																																																																					0.337	0.437	0.439	0.493	0.527	0.488	0.740	0.826	0.734	0.778	0.638	0.759
774																																																																																					0.333	0.432	0.434	0.487	0.520	0.482	0.733	0.817	0.727	0.770	0.631	0.751
775																																																																																					0.329	0.426	0.428	0.480	0.513	0.475	0.724	0.808	0.719	0.761	0.624	0.742
776																																																																																					0.325	0.421	0.423	0.475	0.507	0.469	0.717	0.799	0.711	0.753	0.618	0.734
777																																																																																					0.321	0.417	0.418	0.469	0.501	0.464	0.709	0.791	0.704	0.746	0.612	0.727
778																																																																																					0.317	0.411	0.412	0.464	0.494	0.458	0.701	0.782	0.697	0.738	0.605	0.718
779																																																																																					0.313	0.406	0.407	0.457	0.488	0.452	0.693	0.773	0.689	0.730	0.598	0.710
780																																																																																					0.310	0.401	0.402	0.452	0.482	0.446	0.685	0.764	0.681	0.722	0.591	0.702
781																																																																																					0.306	0.396	0.397	0.446	0.475	0.440	0.676	0.754	0.673	0.713	0.584	0.693
782																																																																																					0.302	0.391	0.392	0.440	0.469	0.434	0.669	0.746	0.666	0.705	0.578	0.685
783																																																																																					0.298	0.386	0.387	0.435	0.463	0.429	0.661	0.737	0.659	0.697	0.572	0.677
784																																																																																					0.295	0.381	0.381	0.429	0.457	0.423	0.654	0.729	0.651	0.690	0.565	0.669
785																																																																																					0.291	0.377	0.377	0.424	0.451	0.418	0.646	0.721	0.644	0.682	0.558	0.661
786																																																																																					0.288	0.372	0.372	0.418	0.445	0.412	0.638	0.711	0.636	0.673	0.551	0.653
787																																																																																					0.284	0.367	0.367	0.413	0.439	0.407	0.631	0.703	0.629	0.666	0.545	0.645
788																																																																																					0.281	0.363	0.363	0.408	0.434	0.401	0.623	0.694	0.622	0.658	0.539	0.638
789																																																																																					0.278	0.359	0.358	0.403	0.429	0.397	0.616	0.687	0.615	0.652	0.533	0.631
790																																																																																					0.275	0.355	0.354	0.399	0.423	0.392	0.610	0.679	0.609	0.644	0.527	0.624
791																																																																																					0.272	0.351	0.350	0.394	0.418	0.387	0.603	0.671	0.602	0.637	0.522	0.617
792																																																																																					0.269	0.346	0.345	0.388	0.413	0.382	0.596	0.663	0.595	0.630	0.516	0.609
793																																																																																					0.266	0.342	0.341	0.384	0.408	0.378	0.588	0.656	0.588	0.623	0.510	0.602
794																																																																																					0.263	0.338	0.337	0.379	0.403	0.373	0.582	0.648	0.582	0.616	0.504	0.595
795																																																																																					0.259	0.334	0.332	0.374	0.397	0.367	0.573	0.639	0.574	0.607	0.497	0.587
796																																																																																					0.256	0.330	0.328	0.369	0.392	0.363	0.567	0.632	0.568	0.601	0.492	0.580
797																																																																																					0.254	0.326	0.325	0.365	0.387	0.359	0.560	0.625	0.561	0.595	0.486	0.574
798																																																																																					0.251	0.323	0.321	0.361	0.383	0.354	0.554	0.618	0.555	0.588	0.481	0.568
799																																																																																					0.248	0.319	0.317	0.357	0.378	0.350	0.548	0.610	0.549	0.581	0.475	0.561
800																																																																																					0.246	0.316	0.314	0.353	0.374	0.346	0.541	0.603	0.543	0.575	0.470	0.555
801																																																																																					0.243	0.312	0.310	0.348	0.369	0.341	0.535	0.596	0.536	0.568	0.464	0.547
802																																																																																					0.240	0.308	0.306	0.344	0.364	0.337	0.529	0.589	0.530	0.562	0.459	0.541
803																																																																																					0.238	0.305	0.303	0.341	0.360	0.334	0.523	0.582	0.525	0.556	0.454	0.535
804																																																																																					0.236	0.302	0.299	0.337	0.356	0.330	0.517	0.575	0.519	0.550	0.449	0.529
805																																																																																					0.233	0.299	0.296	0.333	0.352	0.326	0.511	0.568	0.513	0.544	0.444	0.523
806																																																																																					0.231	0.295	0.293	0.329	0.348	0.322	0.505	0.562	0.508	0.538	0.439	0.517
807																																																																																					0.228	0.292	0.289	0.325	0.343	0.318	0.498	0.555	0.501	0.531	0.434	0.510
808																																																																																					0.226	0.289	0.286	0.322	0.340	0.315	0.493	0.549	0.496	0.526	0.429	0.505
809																																																																																					0.224	0.286	0.283	0.318	0.336	0.311	0.488	0.543	0.491	0.520	0.425	0.499
810																																																																																					0.222	0.283	0.280	0.315	0.332	0.308	0.482	0.537	0.486	0.515	0.420	0.494
811																																																																																					0.220	0.281	0.277	0.311	0.329	0.304	0.477	0.530	0.480	0.509	0.415	0.488
812																																																																																					0.217	0.278	0.274	0.308	0.325	0.301	0.471	0.524	0.475	0.503	0.411	0.482
813																																																																																					0.215	0.275	0.271	0.304	0.321	0.297	0.466	0.518	0.469	0.498	0.406	0.477
814																																																																																					0.213	0.272	0.268	0.301	0.318	0.294	0.460	0.512	0.464	0.492	0.402	0.471
815																																																																																					0.211	0.269	0.265	0.298	0.314	0.290	0.455	0.506	0.459	0.487	0.397	0.465
816																																																																																					0.210	0.266	0.262	0.295	0.310	0.287	0.450	0.500	0.454	0.482	0.393	0.460
817																																																																																					0.208	0.264	0.260	0.292	0.307	0.284	0.445	0.495	0.449	0.476	0.388	0.455
818																																																																																					0.205	0.261	0.257	0.288	0.303	0.281	0.439	0.488	0.444	0.470	0.383	0.449
819																																																																																					0.203	0.258	0.254	0.285	0.299	0.277	0.433	0.482	0.438	0.465	0.379	0.443
820																																																																																					0.201	0.256	0.251	0.281	0.295	0.274	0.427	0.475	0.433	0.458	0.374	0.437
821																																																																																					0.199	0.253	0.247	0.277	0.292	0.270	0.420	0.468	0.428	0.453	0.369	0.431
822																																																																																					0.197	0.251	0.245	0.274	0.289	0.268	0.417	0.464	0.423	0.449	0.365	0.427
823																																																																																					0.197	0.249	0.244	0.274	0.287	0.266	0.415	0.461	0.420	0.445	0.363	0.424
824																																																																																					0.196	0.247	0.243	0.273	0.286	0.265	0.412	0.458	0.417	0.443	0.361	0.422
825																																																																																					0.195	0.245	0.241	0.271	0.283	0.263	0.410	0.455	0.414	0.439	0.358	0.418
826																																																																																					0.193	0.243	0.239	0.269	0.281	0.260	0.405	0.449	0.409	0.434	0.354	0.414
827																																																																																					0.191	0.241	0.236	0.265	0.277	0.257	0.399	0.443	0.404	0.429	0.350	0.408
828																																																																																					0.190	0.239	0.234	0.263	0.275	0.255	0.395	0.439	0.400	0.425	0.346	0.404
829																																																																																					0.189	0.237	0.233	0.262	0.273	0.253	0.393	0.435	0.397	0.422	0.344	0.401
830																																																																																					0.188	0.236	0.231	0.260	0.271	0.251	0.390	0.432	0.393	0.418	0.341	0.397
831																																																																																					0.187	0.234	0.229	0.258	0.268	0.249	0.385	0.427	0.390	0.414	0.337	0.393
832																																																																																					0.185	0.232	0.226	0.254	0.265	0.245	0.378	0.420	0.384	0.408	0.332	0.387
833																																																																																					0.183	0.231	0.224	0.251	0.262	0.243	0.374	0.415	0.380	0.403	0.328	0.382
834																																																																																					0.182	0.229	0.222	0.249	0.260	0.241	0.370	0.411	0.376	0.400	0.325	0.379
835																																																																																					0.181	0.227	0.221	0.248	0.259	0.239	0.368	0.408	0.373	0.397	0.323	0.376
836																																																																																					0.181	0.225	0.220	0.247	0.257	0.238	0.366	0.405	0.370	0.394	0.321	0.373
837																																																																																					0.179	0.223	0.218	0.245	0.254	0.236	0.362	0.401	0.366	0.390	0.317	0.369
838																																																																																					0.178	0.221	0.215	0.242	0.251	0.233	0.357	0.395	0.362	0.385	0.313	0.364
839																																																																																					0.176	0.220	0.213	0.239	0.249	0.231	0.352	0.390	0.358	0.381	0.310	0.359
840																																																																																					0.175	0.218	0.211	0.237	0.246	0.228	0.349	0.386	0.354	0.377	0.306	0.356
841																																																																																					0.174	0.216	0.210	0.235	0.245	0.227	0.345	0.383	0.351	0.373	0.304	0.352
842																																																																																					0.172	0.215	0.208	0.234	0.243	0.225	0.343	0.379	0.348	0.370	0.301	0.349
843																																																																																					0.172	0.213	0.207	0.232	0.240	0.223	0.339	0.375	0.344	0.367	0.298	0.346
844																																																																																					0.170	0.211	0.205	0.230	0.238	0.221	0.336	0.371	0.341	0.363	0.295	0.342
845																																																																																					0.169	0.210	0.203	0.228	0.236	0.218	0.332	0.367	0.338	0.359	0.292	0.338
846																																																																																					0.167	0.208	0.201	0.225	0.234	0.216	0.328	0.362	0.334	0.355	0.288	0.334
847																																																																																					0.166	0.206	0.200	0.224	0.232	0.215	0.325	0.359	0.331	0.352	0.286	0.331
848																																																																																					0.165	0.205	0.198	0.222	0.230	0.213	0.322	0.355	0.327	0.349	0.283	0.328
849																																																																																					0.164	0.204	0.196	0.220	0.228	0.211	0.318	0.352	0.324	0.345	0.281	0.324
850																																																																																					0.163	0.202	0.195	0.218	0.226	0.209	0.315	0.348	0.322	0.343	0.278	0.321
851																																																																																					0.162	0.201	0.194	0.217	0.224	0.208	0.312	0.345	0.319	0.339	0.276	0.318
852																																																																																					0.161	0.200	0.192	0.215	0.222	0.206	0.309	0.341	0.316	0.336	0.273	0.315
853																																																																																					0.160	0.198	0.191	0.214	0.221	0.204	0.306	0.338	0.313	0.333	0.271	0.312
854																																																																																					0.159	0.196	0.189	0.212	0.218	0.202	0.303	0.334	0.309	0.330	0.268	0.308
855																																																																																					0.158	0.195	0.188	0.210	0.217	0.201	0.300	0.331	0.306	0.327	0.265	0.306
856																																																																																					0.157	0.194	0.186	0.208	0.215	0.199	0.297	0.328	0.304	0.324	0.263	0.303
857																																																																																					0.156	0.192	0.185	0.207	0.213	0.197	0.294	0.324	0.301	0.321	0.260	0.300
858																																																																																					0.155	0.191	0.183	0.205	0.212	0.196	0.291	0.321	0.298	0.318	0.258	0.297
859																																																																																					0.154	0.190	0.182	0.204	0.210	0.195	0.289	0.318	0.295	0.315	0.256	0.294
860																																																																																					0.153	0.189	0.181	0.203	0.208	0.193	0.286	0.315	0.293	0.313	0.254	0.292
861																																																																																					0.153	0.188	0.180	0.201	0.207	0.192	0.284	0.313	0.291	0.310	0.251	0.289
862																																																																																					0.152	0.186	0.179	0.200	0.205	0.190	0.281	0.309	0.288	0.307	0.249	0.287
863																																																																																					0.151	0.185	0.178	0.199	0.204	0.189	0.279	0.307	0.286	0.305	0.247	0.284
864																																																																																					0.150	0.184	0.177	0.197	0.202	0.188	0.277	0.304	0.283	0.302	0.245	0.282
865																																																																																					0.150	0.183	0.175	0.196	0.201	0.187	0.274	0.301	0.281	0.300	0.243	0.279
866																																																																																					0.149	0.182	0.174	0.195	0.200	0.186	0.272	0.299	0.279	0.298	0.241	0.277
867																																																																																					0.148	0.181	0.174	0.194	0.199	0.185	0.271	0.296	0.277	0.296	0.240	0.275
868																																																																																					0.148	0.180	0.173	0.193	0.197	0.184	0.268	0.294	0.275	0.293	0.238	0.273
869																																																																																					0.147	0.179	0.172	0.192	0.196	0.182	0.266	0.291	0.272	0.291	0.236	0.271
870																																																																																					0.147	0.179	0.171	0.191	0.195	0.182	0.264	0.289	0.271	0.289	0.234	0.269
871																																																																																					0.146	0.178	0.170	0.190	0.194	0.181	0.262	0.287	0.269	0.287	0.233	0.267
872																																																																																					0.146	0.177	0.170	0.190	0.193	0.180	0.261	0.284	0.267	0.285	0.231	0.265
873																																																																																					0.146	0.176	0.169	0.189	0.192	0.179	0.259	0.282	0.265	0.283	0.230	0.263
874																																																																																					0.145	0.176	0.168	0.188	0.191	0.178	0.257	0.280	0.263	0.281	0.228	0.261
875																																																																																					0.145	0.175	0.167	0.186	0.190	0.177	0.254	0.277	0.261	0.279	0.226	0.259
876																																																																																					0.144	0.174	0.166	0.185	0.188	0.176	0.252	0.275	0.259	0.277	0.224	0.257
877																																																																																					0.143	0.173	0.165	0.184	0.187	0.175	0.250	0.273	0.257	0.274	0.223	0.254
878																																																																																					0.142	0.172	0.164	0.182	0.185	0.173	0.247	0.269	0.255	0.271	0.220	0.251
879																																																																																					0.141	0.171	0.162	0.180	0.184	0.171	0.243	0.266	0.253	0.268	0.218	0.248
880																																																																																					0.139	0.170	0.161	0.178	0.182	0.170	0.240	0.263	0.250	0.266	0.216	0.245
881																																																																																					0.139	0.169	0.160	0.177	0.181	0.169	0.239	0.262	0.247	0.264	0.214	0.244
882																																																																																					0.138	0.167	0.159	0.177	0.180	0.168	0.239	0.260	0.245	0.263	0.213	0.242
883																																																																																					0.138	0.166	0.159	0.177	0.179	0.167	0.238	0.259	0.244	0.261	0.212	0.242
884																																																																																					0.138	0.165	0.158	0.177	0.178	0.167	0.238	0.258	0.242	0.259	0.211	0.240
885																																																																																					0.137	0.163	0.157	0.176	0.177	0.165	0.236	0.256	0.240	0.257	0.210	0.238
886																																																																																					0.136	0.163	0.156	0.174	0.176	0.164	0.233	0.253	0.238	0.255	0.208	0.236
887																																																																																					0.135	0.162	0.154	0.172	0.175	0.163	0.230	0.250	0.236	0.253	0.205	0.234
888																																																																																					0.134	0.162	0.153	0.171	0.174	0.161	0.228	0.248	0.234	0.251	0.204	0.231
889																																																																																					0.134	0.161	0.152	0.170	0.173	0.160	0.226	0.246	0.232	0.249	0.202	0.230
890																																																																																					0.133	0.160	0.151	0.169	0.172	0.159	0.224	0.244	0.230	0.247	0.201	0.228
891																																																																																					0.132	0.159	0.150	0.168	0.171	0.158	0.222	0.242	0.229	0.245	0.199	0.226
892																																																																																					0.131	0.159	0.150	0.167	0.170	0.158	0.220	0.240	0.227	0.243	0.198	0.224
893																																																																																					0.130	0.158	0.149	0.165	0.169	0.156	0.217	0.237	0.225	0.241	0.196	0.221
894																																																																																					0.130	0.158	0.148	0.165	0.168	0.156	0.216	0.235	0.224	0.240	0.194	0.220
895																																																																																					0.130	0.157	0.147	0.164	0.167	0.155	0.215	0.234	0.222	0.238	0.194	0.219
896																																																																																					0.130	0.156	0.147	0.164	0.166	0.154	0.215	0.233	0.221	0.237	0.193	0.218
897																																																																																					0.130	0.155	0.147	0.164	0.166	0.154	0.214	0.232	0.219	0.236	0.192	0.217
898																																																																																					0.129	0.154	0.146	0.163	0.165	0.153	0.213	0.231	0.218	0.234	0.191	0.216
899																																																																																					0.129	0.153	0.145	0.162	0.164	0.152	0.211	0.229	0.216	0.233	0.189	0.214
900																																																																																					0.128	0.153	0.145	0.161	0.163	0.152	0.209	0.227	0.215	0.231	0.188	0.212
901																																																																																					0.128	0.153	0.144	0.160	0.162	0.151	0.207	0.225	0.214	0.229	0.187	0.210
902																																																																																					0.127	0.153	0.143	0.159	0.162	0.150	0.205	0.223	0.213	0.228	0.185	0.209
903																																																																																					0.126	0.153	0.142	0.158	0.161	0.149	0.203	0.221	0.211	0.227	0.184	0.207
904																																																																																					0.126	0.152	0.142	0.158	0.160	0.149	0.203	0.220	0.210	0.225	0.183	0.206
905																																																																																					0.126	0.151	0.142	0.158	0.160	0.149	0.203	0.219	0.208	0.224	0.182	0.206
906																																																																																					0.126	0.150	0.141	0.158	0.159	0.148	0.203	0.219	0.207	0.224	0.182	0.205
907																																																																																					0.126	0.149	0.141	0.158	0.159	0.148	0.202	0.218	0.206	0.222	0.181	0.204
908																																																																																					0.126	0.149	0.141	0.157	0.158	0.147	0.200	0.216	0.205	0.221	0.180	0.203
909																																																																																					0.125	0.149	0.140	0.157	0.158	0.147	0.199	0.215	0.204	0.220	0.179	0.201
910																																																																																					0.125	0.149	0.140	0.156	0.157	0.147	0.197	0.213	0.203	0.218	0.178	0.200
911																																																																																					0.125	0.149	0.140	0.155	0.157	0.146	0.196	0.212	0.203	0.217	0.177	0.199
912																																																																																					0.125	0.149	0.140	0.155	0.156	0.146	0.195	0.210	0.202	0.216	0.176	0.198
913																																																																																					0.124	0.149	0.139	0.154	0.156	0.145	0.193	0.209	0.201	0.214	0.175	0.197
914																																																																																					0.124	0.149	0.139	0.153	0.156	0.145	0.191	0.208	0.201	0.214	0.174	0.196
915																																																																																					0.124	0.150	0.139	0.153	0.156	0.145	0.191	0.207	0.199	0.214	0.174	0.195
916																																																																																					0.125	0.149	0.139	0.154	0.155	0.145	0.192	0.207	0.198	0.213	0.173	0.195
917																																																																																					0.125	0.148	0.139	0.154	0.155	0.145	0.192	0.207	0.197	0.213	0.173	0.194
918																																																																																					0.125	0.147	0.139	0.154	0.155	0.145	0.193	0.206	0.196	0.212	0.173	0.194
919																																																																																					0.126	0.147	0.139	0.155	0.155	0.145	0.193	0.206	0.196	0.211	0.173	0.194
920																																																																																					0.126	0.147	0.139	0.155	0.155	0.145	0.192	0.205	0.196	0.211	0.172	0.193
921																																																																																					0.126	0.148	0.139	0.155	0.156	0.146	0.191	0.205	0.195	0.210	0.172	0.193
922																																																																																					0.127	0.149	0.140	0.156	0.156	0.146	0.191	0.205	0.195	0.210	0.172	0.193
923																																																																																					0.128	0.150	0.141	0.156	0.157	0.147	0.190	0.204	0.195	0.210	0.172	0.193
924																																																																																					0.128	0.150	0.141	0.157	0.157	0.147	0.191	0.204	0.195	0.210	0.172	0.193
925																																																																																					0.129	0.151	0.142	0.158	0.158	0.148	0.191	0.205	0.196	0.210	0.172	0.193
926																																																																																					0.130	0.152	0.143	0.158	0.159	0.149	0.191	0.205	0.196	0.211	0.172	0.193
927																																																																																					0.131	0.153	0.143	0.159	0.160	0.150	0.191	0.205	0.196	0.211	0.172	0.193
928																																																																																					0.132	0.154	0.144	0.160	0.161	0.151	0.191	0.206	0.197	0.212	0.172	0.194
929																																																																																					0.133	0.155	0.145	0.161	0.162	0.152	0.192	0.206	0.197	0.212	0.173	0.194
930																																																																																					0.134	0.157	0.146	0.162	0.163	0.153	0.192	0.207	0.197	0.213	0.173	0.195
931																																																																																					0.135	0.158	0.148	0.164	0.165	0.154	0.193	0.208	0.198	0.213	0.174	0.196
932																																																																																					0.137	0.159	0.149	0.165	0.166	0.156	0.194	0.209	0.199	0.214	0.174	0.197
933																																																																																					0.138	0.161	0.150	0.167	0.168	0.157	0.195	0.210	0.200	0.215	0.175	0.198
934																																																																																					0.140	0.163	0.152	0.168	0.170	0.159	0.196	0.211	0.201	0.215	0.176	0.199
935																																																																																					0.141	0.165	0.153	0.170	0.171	0.161	0.197	0.212	0.202	0.217	0.177	0.200
936																																																																																					0.143	0.166	0.155	0.172	0.173	0.162	0.198	0.214	0.203	0.218	0.178	0.201
937																																																																																					0.144	0.168	0.156	0.173	0.175	0.164	0.199	0.215	0.204	0.219	0.179	0.202
938																																																																																					0.146	0.169	0.158	0.175	0.177	0.166	0.201	0.217	0.205	0.221	0.180	0.203
939																																																																																					0.148	0.171	0.160	0.177	0.178	0.167	0.202	0.218	0.205	0.222	0.181	0.204
940																																																																																					0.150	0.172	0.161	0.179	0.180	0.169	0.204	0.220	0.207	0.223	0.182	0.206
941																																																																																					0.152	0.174	0.164	0.181	0.182	0.171	0.205	0.221	0.208	0.224	0.183	0.207
942																																																																																					0.154	0.177	0.166	0.184	0.185	0.173	0.207	0.224	0.210	0.226	0.184	0.209
943																																																																																					0.157	0.180	0.169	0.187	0.188	0.176	0.209	0.226	0.212	0.229	0.186	0.212
944																																																																																					0.159	0.183	0.171	0.190	0.191	0.179	0.212	0.229	0.214	0.231	0.188	0.214
945																																																																																					0.162	0.186	0.174	0.193	0.194	0.182	0.214	0.232	0.217	0.233	0.191	0.217
946																																																																																					0.165	0.189	0.177	0.196	0.198	0.186	0.217	0.235	0.219	0.236	0.193	0.220
947																																																																																					0.168	0.193	0.180	0.200	0.202	0.189	0.220	0.238	0.222	0.239	0.195	0.223
948																																																																																					0.172	0.197	0.184	0.204	0.206	0.194	0.224	0.243	0.226	0.243	0.198	0.227
949																																																																																					0.177	0.201	0.189	0.209	0.211	0.198	0.227	0.247	0.229	0.247	0.201	0.230
950																																																																																					0.181	0.206	0.193	0.214	0.216	0.203	0.232	0.252	0.233	0.251	0.204	0.234
951																																																																																					0.185	0.210	0.197	0.219	0.221	0.207	0.236	0.257	0.236	0.255	0.208	0.238
952																																																																																					0.189	0.214	0.201	0.223	0.225	0.211	0.240	0.261	0.240	0.258	0.211	0.242
953																																																																																					0.194	0.218	0.205	0.228	0.230	0.216	0.244	0.266	0.244	0.262	0.214	0.247
954																																																																																					0.199	0.224	0.211	0.234	0.236	0.221	0.249	0.271	0.248	0.267	0.218	0.252
955																																																																																					0.204	0.230	0.216	0.240	0.242	0.227	0.254	0.277	0.253	0.273	0.223	0.257
956																																																																																					0.208	0.235	0.221	0.245	0.247	0.232	0.258	0.282	0.257	0.277	0.226	0.262
957																																																																																					0.213	0.239	0.225	0.250	0.252	0.237	0.262	0.286	0.261	0.281	0.229	0.266
958																																																																																					0.216	0.243	0.229	0.254	0.256	0.240	0.266	0.290	0.264	0.285	0.232	0.269
959																																																																																					0.220	0.247	0.232	0.258	0.260	0.244	0.269	0.294	0.267	0.288	0.234	0.272
960																																																																																					0.222	0.249	0.234	0.260	0.263	0.247	0.271	0.296	0.269	0.290	0.236	0.274
961																																																																																					0.224	0.251	0.236	0.262	0.265	0.249	0.272	0.298	0.271	0.291	0.237	0.276
962																																																																																					0.225	0.253	0.238	0.264	0.267	0.250	0.274	0.299	0.272	0.292	0.238	0.277
963																																																																																					0.226	0.254	0.239	0.265	0.268	0.251	0.274	0.300	0.273	0.293	0.239	0.278
964																																																																																					0.227	0.255	0.240	0.266	0.269	0.252	0.275	0.301	0.273	0.294	0.239	0.278
965																																																																																					0.228	0.256	0.241	0.267	0.269	0.253	0.275	0.301	0.274	0.294	0.240	0.279
966																																																																																					0.228	0.256	0.241	0.267	0.270	0.254	0.275	0.301	0.274	0.295	0.240	0.279
967																																																																																					0.228	0.257	0.241	0.267	0.270	0.254	0.275	0.301	0.274	0.294	0.240	0.279
968																																																																																					0.229	0.257	0.241	0.268	0.271	0.254	0.275	0.302	0.274	0.294	0.240	0.279
969																																																																																					0.229	0.257	0.241	0.268	0.271	0.255	0.275	0.302	0.273	0.294	0.240	0.279
970																																																																																					0.229	0.257	0.241	0.268	0.271	0.255	0.275	0.301	0.273	0.294	0.239	0.278
971																																																																																					0.229	0.257	0.241	0.268	0.271	0.254	0.275	0.301	0.273	0.293	0.239	0.278
972																																																																																					0.229	0.256	0.241	0.268	0.270	0.254	0.275	0.301	0.272	0.293	0.239	0.278
973																																																																																					0.229	0.256	0.241	0.268	0.271	0.254	0.274	0.300	0.272	0.293	0.238	0.277
974																																																																																					0.229	0.256	0.241	0.267	0.270	0.254	0.273	0.299	0.272	0.292	0.238	0.277
975																																																																																					0.228	0.256	0.241	0.267	0.269	0.253	0.272	0.298	0.271	0.291	0.237	0.276
976																																																																																					0.227	0.256	0.240	0.266	0.269	0.253	0.270	0.297	0.271	0.289	0.236	0.275
977																																																																																					0.226	0.255	0.239	0.265	0.268	0.252	0.269	0.296	0.270	0.289	0.235	0.274
978																																																																																					0.226	0.255	0.238	0.263	0.268	0.251	0.268	0.295	0.268	0.289	0.235	0.273
979																																																																																					0.226	0.254	0.237	0.263	0.267	0.251	0.269	0.294	0.267	0.288	0.234	0.272
980																																																																																					0.226	0.253	0.237	0.263	0.266	0.251	0.270	0.294	0.266	0.288	0.234	0.272
981																																																																																					0.226	0.251	0.237	0.263	0.265	0.250	0.270	0.294	0.265	0.286	0.234	0.271
982																																																																																					0.226	0.249	0.236	0.263	0.264	0.250	0.270	0.293	0.264	0.284	0.233	0.270
983																																																																																					0.224	0.248	0.235	0.262	0.263	0.248	0.267	0.291	0.263	0.283	0.232	0.269
984																																																																																					0.222	0.247	0.234	0.259	0.261	0.246	0.264	0.289	0.261	0.282	0.230	0.267
985																																																																																					0.220	0.246	0.232	0.257	0.259	0.244	0.262	0.286	0.260	0.279	0.228	0.264
986																																																																																					0.218	0.245	0.230	0.255	0.258	0.242	0.259	0.284	0.258	0.277	0.226	0.263
987																																																																																					0.217	0.243	0.228	0.253	0.255	0.240	0.257	0.281	0.256	0.275	0.224	0.260
988																																																																																					0.215	0.241	0.226	0.251	0.253	0.238	0.254	0.279	0.255	0.272	0.223	0.258
989																																																																																					0.212	0.239	0.224	0.248	0.251	0.236	0.251	0.275	0.253	0.269	0.221	0.256
990																																																																																					0.210	0.238	0.222	0.246	0.249	0.234	0.248	0.273	0.251	0.269	0.218	0.253
991																																																																																					0.209	0.237	0.221	0.244	0.247	0.232	0.247	0.272	0.249	0.268	0.218	0.252
992																																																																																					0.208	0.235	0.219	0.243	0.246	0.232	0.248	0.271	0.247	0.267	0.217	0.251
993																																																																																					0.208	0.234	0.219	0.242	0.245	0.232	0.248	0.270	0.246	0.266	0.216	0.250
994																																																																																					0.208	0.232	0.218	0.242	0.244	0.231	0.248	0.269	0.244	0.264	0.216	0.249
995																																																																																					0.207	0.229	0.217	0.241	0.242	0.229	0.247	0.267	0.243	0.262	0.215	0.248
996																																																																																					0.205	0.227	0.215	0.239	0.240	0.227	0.244	0.265	0.241	0.260	0.213	0.246
997																																																																																					0.203	0.226	0.213	0.236	0.238	0.224	0.241	0.261	0.239	0.258	0.211	0.243
998																																																																																					0.200	0.224	0.210	0.233	0.235	0.222	0.238	0.258	0.236	0.255	0.208	0.240
999																																																																																					0.198	0.222	0.208	0.230	0.232	0.219	0.235	0.256	0.234	0.252	0.206	0.237

结果
	1	2	3	4	5	6	7	8	9	10	11	12
A	?????	?????	?????	?????	?????	?????	?????	?????	?????	?????	?????	?????	Mean Max OD [Spectrum]
B	?????	?????	?????	?????	?????	?????	?????	?????	?????	?????	?????	?????	Mean Max OD [Spectrum]
C	?????	?????	?????	?????	?????	?????	?????	?????	?????	?????	?????	?????	Mean Max OD [Spectrum]
D	?????	?????	?????	?????	?????	?????	?????	?????	?????	?????	?????	?????	Mean Max OD [Spectrum]
E	?????	?????	?????	?????	?????	?????	?????	?????	?????	?????	?????	?????	Mean Max OD [Spectrum]
F	?????	?????	?????	?????	?????	?????	?????	?????	?????	?????	?????	?????	Mean Max OD [Spectrum]
G	?????	?????	?????	?????	?????	?????	?????	?????	?????	?????	?????	?????	Mean Max OD [Spectrum]
H	1.019	1.157	1.102	1.204	1.259	1.180	1.173	1.307	1.126	1.210	0.998	1.199	Mean Max OD [Spectrum]

