

软件版本	3.11.19



实验文件路径:	
方案文件路径:	



板编号	板 1
日期	2023/4/10
时间	8:59:43
检测仪类型:	Epoch 2
检测仪序列号:	2205170B
检测类型	检测仪

程序详细信息

板类型	96 WELL PLATE
完成后弹出板	
检测	吸收光 光谱
	A1..A12
	开始: 400 nm,  停止: 999 nm,  步骤: 1 nm
	检测前校准
	检测速度: 正常,  延迟: 100 msec,  测量值/数据点: 8

Spectrum

波长	A1	A2	A3	A4	A5	A6	A7	A8	A9	A10	A11	A12	B1	B2	B3	B4	B5	B6	B7	B8	B9	B10	B11	B12	C1	C2	C3	C4	C5	C6	C7	C8	C9	C10	C11	C12	D1	D2	D3	D4	D5	D6	D7	D8	D9	D10	D11	D12	E1	E2	E3	E4	E5	E6	E7	E8	E9	E10	E11	E12	F1	F2	F3	F4	F5	F6	F7	F8	F9	F10	F11	F12	G1	G2	G3	G4	G5	G6	G7	G8	G9	G10	G11	G12	H1	H2	H3	H4	H5	H6	H7	H8	H9	H10	H11	H12
400	0.691	0.707	0.655	0.710	0.680	0.689	0.683	0.692	0.554	0.646	0.563	0.536																																																																																				
401	0.690	0.706	0.654	0.709	0.678	0.688	0.682	0.691	0.553	0.644	0.562	0.535																																																																																				
402	0.688	0.704	0.652	0.707	0.676	0.686	0.680	0.689	0.551	0.642	0.560	0.533																																																																																				
403	0.686	0.702	0.650	0.705	0.674	0.684	0.678	0.687	0.550	0.641	0.559	0.532																																																																																				
404	0.684	0.700	0.648	0.703	0.673	0.682	0.676	0.685	0.548	0.639	0.557	0.530																																																																																				
405	0.683	0.699	0.647	0.701	0.671	0.681	0.674	0.683	0.547	0.638	0.556	0.529																																																																																				
406	0.681	0.697	0.645	0.700	0.669	0.679	0.673	0.682	0.546	0.636	0.555	0.528																																																																																				
407	0.679	0.695	0.644	0.698	0.668	0.677	0.671	0.680	0.545	0.634	0.553	0.526																																																																																				
408	0.678	0.694	0.643	0.696	0.666	0.676	0.670	0.678	0.543	0.633	0.552	0.525																																																																																				
409	0.676	0.692	0.641	0.695	0.665	0.674	0.668	0.677	0.542	0.631	0.551	0.524																																																																																				
410	0.674	0.690	0.640	0.693	0.663	0.672	0.666	0.675	0.541	0.630	0.549	0.523																																																																																				
411	0.673	0.688	0.638	0.691	0.661	0.671	0.665	0.674	0.539	0.628	0.548	0.521																																																																																				
412	0.671	0.687	0.637	0.690	0.660	0.669	0.663	0.672	0.538	0.627	0.547	0.520																																																																																				
413	0.670	0.685	0.635	0.688	0.658	0.668	0.661	0.671	0.537	0.625	0.546	0.519																																																																																				
414	0.668	0.683	0.634	0.686	0.657	0.666	0.660	0.669	0.536	0.624	0.544	0.518																																																																																				
415	0.666	0.682	0.632	0.684	0.655	0.664	0.658	0.667	0.534	0.622	0.543	0.516																																																																																				
416	0.665	0.680	0.631	0.683	0.654	0.663	0.657	0.666	0.533	0.621	0.542	0.515																																																																																				
417	0.663	0.679	0.630	0.681	0.652	0.661	0.655	0.664	0.532	0.619	0.541	0.514																																																																																				
418	0.662	0.677	0.628	0.680	0.651	0.660	0.654	0.663	0.531	0.618	0.540	0.513																																																																																				
419	0.660	0.675	0.627	0.678	0.649	0.658	0.652	0.661	0.530	0.617	0.538	0.512																																																																																				
420	0.659	0.674	0.625	0.677	0.648	0.657	0.651	0.660	0.529	0.615	0.537	0.511																																																																																				
421	0.657	0.672	0.624	0.675	0.646	0.655	0.649	0.659	0.528	0.614	0.536	0.510																																																																																				
422	0.656	0.671	0.623	0.674	0.645	0.654	0.648	0.657	0.527	0.613	0.535	0.509																																																																																				
423	0.655	0.670	0.622	0.673	0.644	0.653	0.647	0.656	0.526	0.612	0.534	0.508																																																																																				
424	0.653	0.668	0.621	0.671	0.643	0.652	0.646	0.655	0.525	0.610	0.533	0.507																																																																																				
425	0.652	0.667	0.620	0.670	0.641	0.650	0.644	0.653	0.524	0.609	0.532	0.506																																																																																				
426	0.651	0.666	0.619	0.669	0.640	0.649	0.643	0.652	0.523	0.608	0.531	0.505																																																																																				
427	0.650	0.665	0.618	0.667	0.639	0.648	0.642	0.651	0.522	0.607	0.530	0.504																																																																																				
428	0.648	0.663	0.616	0.666	0.638	0.647	0.641	0.650	0.521	0.606	0.529	0.503																																																																																				
429	0.647	0.662	0.615	0.665	0.636	0.645	0.639	0.648	0.520	0.604	0.528	0.502																																																																																				
430	0.646	0.660	0.614	0.663	0.635	0.644	0.638	0.647	0.519	0.603	0.527	0.501																																																																																				
431	0.644	0.659	0.612	0.662	0.634	0.643	0.637	0.646	0.518	0.602	0.526	0.500																																																																																				
432	0.643	0.658	0.611	0.661	0.633	0.641	0.636	0.644	0.517	0.601	0.525	0.499																																																																																				
433	0.642	0.656	0.610	0.659	0.631	0.640	0.634	0.643	0.516	0.600	0.524	0.499																																																																																				
434	0.641	0.655	0.609	0.658	0.630	0.639	0.633	0.642	0.515	0.598	0.523	0.497																																																																																				
435	0.639	0.654	0.608	0.657	0.629	0.638	0.632	0.641	0.514	0.597	0.522	0.497																																																																																				
436	0.638	0.653	0.607	0.656	0.628	0.637	0.631	0.640	0.513	0.596	0.522	0.496																																																																																				
437	0.637	0.651	0.605	0.655	0.627	0.635	0.630	0.638	0.512	0.595	0.521	0.495																																																																																				
438	0.636	0.650	0.604	0.653	0.625	0.634	0.628	0.637	0.511	0.594	0.519	0.494																																																																																				
439	0.635	0.649	0.603	0.652	0.624	0.633	0.627	0.636	0.510	0.593	0.519	0.493																																																																																				
440	0.633	0.648	0.602	0.651	0.623	0.632	0.626	0.635	0.509	0.592	0.518	0.492																																																																																				
441	0.632	0.647	0.601	0.650	0.623	0.631	0.625	0.634	0.508	0.591	0.517	0.492																																																																																				
442	0.631	0.646	0.600	0.649	0.621	0.630	0.624	0.633	0.508	0.590	0.516	0.491																																																																																				
443	0.630	0.645	0.600	0.648	0.621	0.629	0.623	0.632	0.507	0.589	0.516	0.490																																																																																				
444	0.629	0.644	0.598	0.647	0.620	0.628	0.622	0.631	0.506	0.588	0.515	0.489																																																																																				
445	0.628	0.642	0.597	0.646	0.618	0.627	0.621	0.630	0.505	0.587	0.514	0.489																																																																																				
446	0.627	0.642	0.597	0.645	0.618	0.626	0.620	0.629	0.504	0.586	0.513	0.488																																																																																				
447	0.626	0.640	0.596	0.644	0.617	0.625	0.619	0.628	0.504	0.585	0.513	0.487																																																																																				
448	0.625	0.640	0.595	0.643	0.616	0.624	0.619	0.627	0.503	0.585	0.512	0.487																																																																																				
449	0.625	0.639	0.594	0.642	0.615	0.624	0.618	0.626	0.502	0.584	0.511	0.486																																																																																				
450	0.624	0.638	0.593	0.641	0.614	0.623	0.617	0.625	0.502	0.583	0.511	0.485																																																																																				
451	0.623	0.637	0.592	0.640	0.613	0.622	0.616	0.624	0.501	0.582	0.510	0.485																																																																																				
452	0.622	0.636	0.592	0.639	0.612	0.621	0.615	0.624	0.500	0.581	0.509	0.484																																																																																				
453	0.621	0.635	0.591	0.638	0.612	0.620	0.614	0.623	0.500	0.581	0.509	0.484																																																																																				
454	0.620	0.634	0.590	0.638	0.611	0.619	0.614	0.622	0.499	0.580	0.508	0.483																																																																																				
455	0.619	0.634	0.590	0.637	0.610	0.619	0.613	0.621	0.499	0.579	0.508	0.483																																																																																				
456	0.619	0.633	0.589	0.636	0.610	0.618	0.612	0.621	0.498	0.579	0.507	0.482																																																																																				
457	0.618	0.632	0.588	0.636	0.609	0.617	0.612	0.620	0.498	0.578	0.507	0.482																																																																																				
458	0.617	0.632	0.588	0.635	0.609	0.617	0.611	0.620	0.497	0.578	0.506	0.481																																																																																				
459	0.617	0.631	0.587	0.634	0.608	0.616	0.611	0.619	0.497	0.577	0.506	0.481																																																																																				
460	0.616	0.630	0.587	0.634	0.608	0.616	0.610	0.618	0.497	0.577	0.506	0.481																																																																																				
461	0.616	0.630	0.587	0.634	0.607	0.616	0.610	0.618	0.496	0.577	0.506	0.481																																																																																				
462	0.616	0.630	0.587	0.634	0.607	0.616	0.610	0.618	0.496	0.576	0.506	0.481																																																																																				
463	0.615	0.630	0.586	0.633	0.607	0.615	0.610	0.618	0.496	0.576	0.505	0.481																																																																																				
464	0.615	0.629	0.586	0.633	0.607	0.615	0.609	0.618	0.496	0.576	0.505	0.481																																																																																				
465	0.615	0.629	0.586	0.633	0.607	0.615	0.609	0.617	0.496	0.576	0.505	0.480																																																																																				
466	0.615	0.629	0.586	0.633	0.607	0.615	0.609	0.617	0.496	0.576	0.505	0.481																																																																																				
467	0.615	0.629	0.586	0.633	0.607	0.615	0.610	0.617	0.496	0.576	0.506	0.481																																																																																				
468	0.615	0.629	0.586	0.633	0.607	0.615	0.610	0.618	0.496	0.576	0.506	0.481																																																																																				
469	0.615	0.630	0.586	0.634	0.607	0.616	0.610	0.618	0.496	0.576	0.506	0.481																																																																																				
470	0.616	0.630	0.587	0.634	0.608	0.616	0.610	0.618	0.497	0.577	0.507	0.482																																																																																				
471	0.616	0.630	0.587	0.635	0.608	0.617	0.611	0.619	0.497	0.577	0.507	0.482																																																																																				
472	0.617	0.631	0.588	0.635	0.609	0.617	0.612	0.619	0.497	0.578	0.508	0.483																																																																																				
473	0.617	0.632	0.588	0.636	0.610	0.618	0.612	0.620	0.498	0.578	0.508	0.483																																																																																				
474	0.618	0.633	0.589	0.637	0.610	0.619	0.613	0.621	0.499	0.579	0.509	0.484																																																																																				
475	0.619	0.634	0.590	0.638	0.612	0.620	0.614	0.622	0.500	0.580	0.510	0.485																																																																																				
476	0.620	0.635	0.591	0.640	0.613	0.621	0.616	0.623	0.501	0.582	0.511	0.486																																																																																				
477	0.622	0.637	0.593	0.641	0.614	0.623	0.617	0.625	0.502	0.583	0.513	0.487																																																																																				
478	0.623	0.638	0.594	0.643	0.616	0.625	0.619	0.626	0.503	0.584	0.514	0.489																																																																																				
479	0.625	0.640	0.596	0.645	0.618	0.627	0.621	0.628	0.505	0.586	0.516	0.490																																																																																				
480	0.627	0.642	0.598	0.647	0.620	0.629	0.623	0.630	0.506	0.588	0.517	0.492																																																																																				
481	0.630	0.645	0.600	0.650	0.623	0.632	0.626	0.633	0.508	0.591	0.520	0.494																																																																																				
482	0.633	0.648	0.603	0.653	0.626	0.635	0.629	0.636	0.511	0.594	0.522	0.497																																																																																				
483	0.635	0.651	0.605	0.656	0.628	0.637	0.631	0.638	0.513	0.596	0.524	0.499																																																																																				
484	0.637	0.653	0.608	0.658	0.630	0.640	0.633	0.640	0.515	0.598	0.527	0.501																																																																																				
485	0.640	0.656	0.610	0.661	0.633	0.642	0.636	0.643	0.517	0.601	0.529	0.503																																																																																				
486	0.643	0.659	0.613	0.664	0.636	0.646	0.639	0.646	0.519	0.604	0.532	0.505																																																																																				
487	0.647	0.664	0.617	0.669	0.641	0.650	0.644	0.651	0.523	0.608	0.535	0.509																																																																																				
488	0.651	0.667	0.621	0.673	0.645	0.654	0.648	0.654	0.526	0.611	0.538	0.512																																																																																				
489	0.655	0.671	0.624	0.677	0.648	0.658	0.651	0.658	0.529	0.615	0.542	0.515																																																																																				
490	0.659	0.676	0.629	0.682	0.653	0.663	0.656	0.663	0.533	0.619	0.546	0.519																																																																																				
491	0.665	0.682	0.634	0.688	0.659	0.668	0.662	0.668	0.537	0.625	0.550	0.523																																																																																				
492	0.669	0.686	0.638	0.692	0.663	0.673	0.666	0.672	0.540	0.629	0.554	0.527																																																																																				
493	0.674	0.691	0.642	0.697	0.667	0.677	0.671	0.677	0.544	0.633	0.558	0.530																																																																																				
494	0.679	0.696	0.647	0.703	0.673	0.683	0.676	0.682	0.548	0.638	0.562	0.535																																																																																				
495	0.686	0.703	0.654	0.710	0.679	0.690	0.683	0.689	0.554	0.644	0.568	0.540																																																																																				
496	0.693	0.710	0.660	0.717	0.686	0.696	0.690	0.696	0.559	0.651	0.574	0.545																																																																																				
497	0.699	0.717	0.666	0.724	0.693	0.703	0.697	0.702	0.564	0.657	0.579	0.551																																																																																				
498	0.703	0.722	0.670	0.729	0.697	0.708	0.702	0.707	0.568	0.661	0.583	0.554																																																																																				
499	0.709	0.727	0.675	0.735	0.703	0.713	0.707	0.712	0.572	0.666	0.588	0.559																																																																																				
500	0.714	0.733	0.681	0.741	0.709	0.719	0.713	0.718	0.577	0.672	0.592	0.563																																																																																				
501	0.720	0.739	0.686	0.747	0.714	0.725	0.718	0.724	0.581	0.677	0.598	0.568																																																																																				
502	0.725	0.745	0.692	0.753	0.720	0.731	0.724	0.730	0.586	0.682	0.602	0.572																																																																																				
503	0.730	0.750	0.697	0.758	0.725	0.736	0.730	0.735	0.590	0.687	0.607	0.577																																																																																				
504	0.736	0.756	0.702	0.764	0.731	0.742	0.736	0.741	0.595	0.693	0.612	0.581																																																																																				
505	0.740	0.761	0.706	0.769	0.736	0.747	0.740	0.745	0.599	0.697	0.616	0.585																																																																																				
506	0.745	0.766	0.711	0.775	0.741	0.752	0.745	0.750	0.602	0.702	0.620	0.589																																																																																				
507	0.749	0.770	0.715	0.779	0.745	0.756	0.750	0.754	0.606	0.706	0.623	0.592																																																																																				
508	0.752	0.774	0.718	0.783	0.749	0.760	0.754	0.758	0.609	0.709	0.627	0.596																																																																																				
509	0.755	0.778	0.722	0.787	0.752	0.764	0.757	0.761	0.612	0.713	0.630	0.599																																																																																				
510	0.758	0.781	0.725	0.791	0.756	0.767	0.761	0.765	0.614	0.716	0.633	0.601																																																																																				
511	0.760	0.783	0.727	0.793	0.758	0.770	0.763	0.767	0.616	0.718	0.635	0.603																																																																																				
512	0.762	0.786	0.729	0.796	0.761	0.772	0.766	0.769	0.618	0.720	0.637	0.605																																																																																				
513	0.763	0.787	0.731	0.798	0.762	0.774	0.767	0.771	0.619	0.722	0.638	0.607																																																																																				
514	0.764	0.788	0.732	0.799	0.764	0.775	0.769	0.772	0.620	0.723	0.640	0.608																																																																																				
515	0.765	0.789	0.733	0.800	0.764	0.776	0.770	0.773	0.621	0.723	0.640	0.609																																																																																				
516	0.765	0.789	0.733	0.800	0.765	0.776	0.770	0.773	0.621	0.724	0.641	0.609																																																																																				
517	0.764	0.789	0.733	0.801	0.765	0.776	0.770	0.773	0.621	0.723	0.641	0.609																																																																																				
518	0.764	0.789	0.733	0.800	0.765	0.776	0.770	0.772	0.621	0.723	0.641	0.609																																																																																				
519	0.763	0.788	0.733	0.800	0.764	0.775	0.770	0.772	0.621	0.723	0.640	0.609																																																																																				
520	0.761	0.787	0.732	0.799	0.763	0.774	0.769	0.771	0.620	0.722	0.640	0.608																																																																																				
521	0.760	0.786	0.731	0.798	0.762	0.773	0.768	0.770	0.619	0.720	0.639	0.607																																																																																				
522	0.758	0.784	0.729	0.796	0.760	0.772	0.766	0.768	0.617	0.719	0.637	0.606																																																																																				
523	0.755	0.782	0.727	0.794	0.759	0.769	0.764	0.765	0.616	0.717	0.636	0.604																																																																																				
524	0.753	0.779	0.725	0.792	0.756	0.767	0.762	0.763	0.614	0.714	0.634	0.602																																																																																				
525	0.750	0.777	0.723	0.789	0.754	0.764	0.760	0.761	0.612	0.712	0.632	0.600																																																																																				
526	0.747	0.774	0.720	0.786	0.751	0.761	0.757	0.758	0.609	0.709	0.629	0.598																																																																																				
527	0.743	0.771	0.717	0.783	0.748	0.758	0.754	0.754	0.607	0.706	0.626	0.595																																																																																				
528	0.741	0.768	0.715	0.781	0.746	0.756	0.751	0.752	0.605	0.704	0.624	0.593																																																																																				
529	0.738	0.765	0.713	0.778	0.743	0.753	0.749	0.749	0.603	0.701	0.622	0.591																																																																																				
530	0.735	0.762	0.710	0.775	0.740	0.750	0.746	0.746	0.601	0.698	0.620	0.589																																																																																				
531	0.731	0.759	0.707	0.772	0.737	0.747	0.743	0.742	0.598	0.695	0.616	0.586																																																																																				
532	0.726	0.754	0.703	0.767	0.732	0.742	0.738	0.738	0.594	0.690	0.612	0.582																																																																																				
533	0.722	0.750	0.699	0.763	0.728	0.738	0.734	0.734	0.591	0.686	0.609	0.578																																																																																				
534	0.718	0.746	0.695	0.759	0.724	0.734	0.730	0.730	0.587	0.682	0.606	0.575																																																																																				
535	0.714	0.741	0.691	0.754	0.720	0.729	0.726	0.725	0.584	0.678	0.602	0.571																																																																																				
536	0.709	0.736	0.686	0.749	0.715	0.724	0.721	0.720	0.580	0.674	0.597	0.567																																																																																				
537	0.704	0.731	0.682	0.744	0.710	0.720	0.716	0.715	0.576	0.669	0.593	0.563																																																																																				
538	0.699	0.726	0.677	0.739	0.705	0.714	0.711	0.710	0.572	0.664	0.588	0.559																																																																																				
539	0.694	0.721	0.672	0.734	0.700	0.709	0.706	0.705	0.568	0.659	0.583	0.554																																																																																				
540	0.688	0.715	0.667	0.727	0.694	0.703	0.700	0.699	0.563	0.653	0.578	0.549																																																																																				
541	0.683	0.710	0.662	0.722	0.689	0.698	0.695	0.693	0.559	0.648	0.574	0.545																																																																																				
542	0.679	0.705	0.658	0.717	0.684	0.693	0.690	0.688	0.555	0.644	0.569	0.541																																																																																				
543	0.674	0.700	0.654	0.712	0.679	0.688	0.686	0.683	0.551	0.639	0.565	0.537																																																																																				
544	0.668	0.694	0.648	0.706	0.673	0.682	0.680	0.677	0.546	0.633	0.559	0.531																																																																																				
545	0.662	0.687	0.642	0.699	0.666	0.675	0.673	0.671	0.541	0.627	0.553	0.526																																																																																				
546	0.656	0.681	0.636	0.692	0.660	0.669	0.667	0.664	0.535	0.621	0.547	0.520																																																																																				
547	0.650	0.674	0.630	0.686	0.654	0.662	0.660	0.658	0.530	0.614	0.542	0.515																																																																																				
548	0.644	0.668	0.624	0.679	0.647	0.656	0.654	0.651	0.525	0.608	0.536	0.510																																																																																				
549	0.639	0.661	0.618	0.672	0.641	0.649	0.648	0.645	0.520	0.602	0.531	0.504																																																																																				
550	0.632	0.654	0.612	0.665	0.633	0.641	0.640	0.638	0.514	0.595	0.524	0.498																																																																																				
551	0.625	0.647	0.605	0.657	0.627	0.635	0.634	0.631	0.508	0.588	0.518	0.492																																																																																				
552	0.619	0.639	0.598	0.649	0.619	0.627	0.626	0.623	0.503	0.582	0.511	0.486																																																																																				
553	0.612	0.632	0.592	0.642	0.612	0.620	0.619	0.616	0.496	0.575	0.505	0.480																																																																																				
554	0.605	0.625	0.585	0.634	0.604	0.612	0.611	0.608	0.491	0.568	0.498	0.474																																																																																				
555	0.598	0.618	0.578	0.627	0.598	0.605	0.604	0.602	0.485	0.561	0.492	0.468																																																																																				
556	0.591	0.609	0.571	0.618	0.589	0.596	0.596	0.593	0.478	0.553	0.485	0.461																																																																																				
557	0.583	0.601	0.563	0.610	0.581	0.589	0.588	0.585	0.472	0.546	0.478	0.454																																																																																				
558	0.575	0.593	0.555	0.601	0.572	0.580	0.579	0.576	0.465	0.537	0.470	0.447																																																																																				
559	0.567	0.584	0.547	0.592	0.564	0.571	0.571	0.568	0.458	0.529	0.463	0.440																																																																																				
560	0.559	0.575	0.539	0.582	0.555	0.562	0.561	0.558	0.451	0.520	0.455	0.433																																																																																				
561	0.551	0.566	0.531	0.574	0.547	0.553	0.553	0.550	0.444	0.513	0.448	0.426																																																																																				
562	0.543	0.558	0.523	0.565	0.538	0.545	0.545	0.542	0.438	0.505	0.442	0.420																																																																																				
563	0.537	0.551	0.518	0.558	0.532	0.539	0.539	0.536	0.433	0.499	0.436	0.415																																																																																				
564	0.529	0.543	0.509	0.549	0.524	0.530	0.530	0.527	0.426	0.491	0.429	0.408																																																																																				
565	0.520	0.533	0.501	0.540	0.514	0.521	0.521	0.519	0.419	0.483	0.421	0.401																																																																																				
566	0.512	0.525	0.493	0.531	0.507	0.512	0.513	0.510	0.412	0.475	0.415	0.395																																																																																				
567	0.505	0.516	0.486	0.522	0.498	0.504	0.504	0.502	0.406	0.467	0.408	0.388																																																																																				
568	0.497	0.508	0.478	0.514	0.491	0.496	0.496	0.495	0.400	0.460	0.402	0.382																																																																																				
569	0.489	0.500	0.470	0.505	0.482	0.488	0.488	0.486	0.393	0.452	0.395	0.376																																																																																				
570	0.481	0.491	0.463	0.496	0.474	0.479	0.479	0.478	0.387	0.445	0.388	0.370																																																																																				
571	0.472	0.482	0.454	0.487	0.465	0.470	0.470	0.469	0.380	0.436	0.381	0.363																																																																																				
572	0.464	0.474	0.447	0.478	0.457	0.462	0.462	0.461	0.373	0.429	0.375	0.357																																																																																				
573	0.457	0.466	0.440	0.470	0.450	0.455	0.455	0.454	0.367	0.422	0.369	0.351																																																																																				
574	0.449	0.458	0.432	0.462	0.442	0.447	0.447	0.447	0.361	0.415	0.363	0.346																																																																																				
575	0.441	0.450	0.425	0.454	0.434	0.439	0.438	0.439	0.355	0.408	0.356	0.340																																																																																				
576	0.435	0.443	0.419	0.447	0.428	0.432	0.432	0.432	0.350	0.401	0.351	0.335																																																																																				
577	0.428	0.436	0.412	0.439	0.421	0.425	0.424	0.425	0.344	0.395	0.346	0.330																																																																																				
578	0.420	0.428	0.405	0.431	0.413	0.417	0.417	0.418	0.339	0.388	0.340	0.324																																																																																				
579	0.412	0.420	0.397	0.423	0.406	0.410	0.409	0.410	0.332	0.381	0.334	0.318																																																																																				
580	0.405	0.412	0.390	0.415	0.398	0.402	0.401	0.403	0.327	0.374	0.328	0.313																																																																																				
581	0.398	0.405	0.384	0.408	0.392	0.395	0.394	0.396	0.321	0.368	0.323	0.308																																																																																				
582	0.391	0.398	0.377	0.401	0.385	0.388	0.387	0.390	0.316	0.361	0.317	0.303																																																																																				
583	0.384	0.391	0.371	0.394	0.378	0.381	0.381	0.383	0.311	0.355	0.312	0.298																																																																																				
584	0.378	0.384	0.364	0.386	0.372	0.374	0.373	0.376	0.305	0.349	0.307	0.293																																																																																				
585	0.371	0.377	0.358	0.379	0.365	0.368	0.367	0.370	0.300	0.343	0.302	0.288																																																																																				
586	0.365	0.370	0.352	0.373	0.359	0.361	0.360	0.364	0.295	0.337	0.297	0.284																																																																																				
587	0.358	0.364	0.346	0.366	0.353	0.355	0.354	0.357	0.290	0.332	0.292	0.279																																																																																				
588	0.353	0.358	0.341	0.360	0.347	0.350	0.348	0.352	0.286	0.326	0.287	0.275																																																																																				
589	0.347	0.352	0.336	0.354	0.342	0.344	0.343	0.347	0.282	0.321	0.283	0.271																																																																																				
590	0.342	0.347	0.331	0.349	0.336	0.339	0.337	0.341	0.278	0.316	0.279	0.267																																																																																				
591	0.337	0.341	0.326	0.343	0.331	0.333	0.332	0.336	0.273	0.311	0.275	0.263																																																																																				
592	0.332	0.337	0.321	0.338	0.327	0.329	0.328	0.332	0.270	0.307	0.272	0.260																																																																																				
593	0.328	0.332	0.317	0.333	0.322	0.324	0.323	0.327	0.266	0.303	0.268	0.256																																																																																				
594	0.323	0.327	0.312	0.328	0.317	0.319	0.318	0.323	0.262	0.298	0.264	0.253																																																																																				
595	0.318	0.322	0.308	0.323	0.313	0.314	0.313	0.318	0.259	0.294	0.260	0.249																																																																																				
596	0.314	0.317	0.304	0.319	0.308	0.310	0.308	0.314	0.255	0.290	0.257	0.246																																																																																				
597	0.310	0.313	0.300	0.314	0.305	0.306	0.305	0.310	0.252	0.287	0.254	0.243																																																																																				
598	0.306	0.309	0.297	0.310	0.301	0.302	0.301	0.306	0.249	0.283	0.251	0.240																																																																																				
599	0.303	0.305	0.293	0.306	0.297	0.298	0.297	0.302	0.246	0.280	0.248	0.238																																																																																				
600	0.299	0.301	0.289	0.302	0.293	0.294	0.292	0.299	0.243	0.276	0.245	0.235																																																																																				
601	0.295	0.297	0.285	0.298	0.289	0.290	0.288	0.294	0.239	0.272	0.241	0.232																																																																																				
602	0.291	0.293	0.282	0.294	0.285	0.286	0.284	0.291	0.237	0.268	0.238	0.229																																																																																				
603	0.288	0.290	0.279	0.290	0.282	0.283	0.281	0.287	0.234	0.266	0.236	0.226																																																																																				
604	0.285	0.286	0.276	0.287	0.279	0.280	0.278	0.284	0.232	0.263	0.233	0.224																																																																																				
605	0.282	0.284	0.273	0.284	0.276	0.277	0.275	0.282	0.230	0.260	0.231	0.222																																																																																				
606	0.279	0.281	0.271	0.281	0.273	0.274	0.272	0.279	0.227	0.258	0.229	0.220																																																																																				
607	0.276	0.278	0.268	0.278	0.271	0.272	0.269	0.276	0.225	0.255	0.227	0.218																																																																																				
608	0.274	0.275	0.265	0.275	0.267	0.268	0.266	0.273	0.223	0.252	0.224	0.215																																																																																				
609	0.271	0.272	0.262	0.272	0.265	0.266	0.264	0.270	0.220	0.249	0.222	0.213																																																																																				
610	0.269	0.269	0.260	0.270	0.263	0.263	0.261	0.268	0.219	0.247	0.220	0.212																																																																																				
611	0.266	0.267	0.258	0.267	0.260	0.261	0.259	0.266	0.217	0.245	0.219	0.210																																																																																				
612	0.264	0.265	0.256	0.265	0.258	0.259	0.257	0.263	0.215	0.243	0.217	0.208																																																																																				
613	0.262	0.262	0.254	0.262	0.256	0.256	0.254	0.261	0.213	0.241	0.215	0.207																																																																																				
614	0.260	0.260	0.252	0.260	0.253	0.254	0.252	0.259	0.211	0.239	0.213	0.205																																																																																				
615	0.258	0.258	0.249	0.257	0.251	0.252	0.250	0.257	0.209	0.236	0.211	0.203																																																																																				
616	0.255	0.256	0.247	0.255	0.249	0.249	0.247	0.255	0.208	0.234	0.209	0.202																																																																																				
617	0.254	0.254	0.246	0.253	0.247	0.248	0.246	0.253	0.206	0.233	0.208	0.200																																																																																				
618	0.252	0.252	0.244	0.251	0.245	0.245	0.243	0.251	0.205	0.231	0.206	0.199																																																																																				
619	0.250	0.250	0.242	0.249	0.243	0.244	0.242	0.249	0.203	0.229	0.205	0.197																																																																																				
620	0.248	0.248	0.240	0.247	0.241	0.242	0.240	0.246	0.202	0.227	0.203	0.196																																																																																				
621	0.247	0.246	0.238	0.245	0.240	0.240	0.238	0.245	0.200	0.226	0.202	0.195																																																																																				
622	0.245	0.244	0.237	0.243	0.238	0.238	0.236	0.243	0.199	0.224	0.201	0.193																																																																																				
623	0.244	0.243	0.236	0.242	0.237	0.237	0.235	0.242	0.198	0.223	0.200	0.192																																																																																				
624	0.242	0.241	0.234	0.240	0.235	0.235	0.233	0.240	0.196	0.221	0.198	0.191																																																																																				
625	0.241	0.240	0.233	0.239	0.234	0.234	0.232	0.239	0.195	0.220	0.197	0.190																																																																																				
626	0.240	0.238	0.232	0.237	0.232	0.232	0.230	0.237	0.194	0.219	0.196	0.189																																																																																				
627	0.238	0.237	0.230	0.236	0.231	0.231	0.229	0.236	0.193	0.218	0.195	0.188																																																																																				
628	0.237	0.236	0.229	0.235	0.230	0.230	0.228	0.235	0.192	0.217	0.194	0.187																																																																																				
629	0.236	0.235	0.228	0.234	0.229	0.229	0.227	0.234	0.191	0.216	0.193	0.186																																																																																				
630	0.235	0.234	0.227	0.232	0.228	0.228	0.226	0.233	0.191	0.214	0.193	0.185																																																																																				
631	0.235	0.233	0.226	0.231	0.227	0.227	0.225	0.232	0.190	0.214	0.192	0.185																																																																																				
632	0.234	0.232	0.225	0.230	0.226	0.226	0.224	0.231	0.189	0.213	0.191	0.184																																																																																				
633	0.233	0.231	0.224	0.229	0.225	0.225	0.223	0.230	0.188	0.212	0.190	0.183																																																																																				
634	0.232	0.230	0.224	0.228	0.224	0.224	0.222	0.229	0.187	0.211	0.189	0.183																																																																																				
635	0.231	0.229	0.223	0.227	0.223	0.223	0.221	0.228	0.186	0.210	0.189	0.182																																																																																				
636	0.231	0.228	0.222	0.226	0.222	0.222	0.220	0.227	0.186	0.209	0.188	0.181																																																																																				
637	0.230	0.227	0.221	0.226	0.221	0.221	0.219	0.226	0.185	0.208	0.188	0.181																																																																																				
638	0.229	0.226	0.221	0.225	0.221	0.221	0.218	0.226	0.185	0.208	0.187	0.180																																																																																				
639	0.229	0.226	0.220	0.224	0.220	0.220	0.218	0.225	0.184	0.207	0.187	0.180																																																																																				
640	0.228	0.225	0.219	0.223	0.219	0.219	0.217	0.224	0.184	0.206	0.186	0.179																																																																																				
641	0.228	0.225	0.219	0.223	0.219	0.218	0.216	0.224	0.183	0.206	0.186	0.179																																																																																				
642	0.227	0.224	0.218	0.222	0.218	0.218	0.216	0.223	0.183	0.205	0.185	0.178																																																																																				
643	0.227	0.224	0.218	0.221	0.217	0.217	0.215	0.223	0.182	0.205	0.185	0.178																																																																																				
644	0.227	0.223	0.217	0.221	0.217	0.217	0.215	0.222	0.182	0.204	0.184	0.178																																																																																				
645	0.227	0.223	0.217	0.221	0.217	0.216	0.214	0.222	0.181	0.204	0.184	0.177																																																																																				
646	0.226	0.222	0.216	0.220	0.216	0.216	0.214	0.221	0.181	0.203	0.184	0.177																																																																																				
647	0.226	0.222	0.216	0.220	0.216	0.216	0.213	0.221	0.181	0.203	0.183	0.177																																																																																				
648	0.226	0.222	0.216	0.219	0.215	0.215	0.213	0.221	0.180	0.203	0.183	0.177																																																																																				
649	0.226	0.221	0.215	0.219	0.215	0.215	0.213	0.220	0.180	0.203	0.183	0.177																																																																																				
650	0.226	0.221	0.215	0.219	0.215	0.215	0.213	0.220	0.180	0.202	0.183	0.176																																																																																				
651	0.226	0.221	0.215	0.218	0.214	0.214	0.212	0.220	0.180	0.202	0.183	0.176																																																																																				
652	0.226	0.221	0.215	0.218	0.214	0.214	0.212	0.219	0.180	0.202	0.183	0.176																																																																																				
653	0.226	0.221	0.215	0.218	0.214	0.214	0.212	0.220	0.179	0.202	0.183	0.176																																																																																				
654	0.226	0.221	0.215	0.218	0.214	0.214	0.212	0.219	0.179	0.202	0.183	0.176																																																																																				
655	0.227	0.221	0.215	0.218	0.214	0.214	0.212	0.219	0.179	0.202	0.183	0.176																																																																																				
656	0.227	0.221	0.215	0.218	0.214	0.214	0.212	0.219	0.179	0.202	0.183	0.176																																																																																				
657	0.227	0.221	0.215	0.218	0.214	0.214	0.212	0.219	0.179	0.202	0.183	0.177																																																																																				
658	0.228	0.221	0.215	0.218	0.214	0.214	0.212	0.219	0.179	0.202	0.183	0.177																																																																																				
659	0.228	0.221	0.215	0.218	0.214	0.214	0.212	0.220	0.179	0.202	0.183	0.177																																																																																				
660	0.228	0.222	0.215	0.219	0.214	0.215	0.212	0.220	0.179	0.202	0.183	0.177																																																																																				
661	0.229	0.222	0.215	0.219	0.215	0.215	0.213	0.220	0.180	0.202	0.184	0.177																																																																																				
662	0.229	0.222	0.215	0.219	0.215	0.215	0.213	0.220	0.180	0.203	0.184	0.177																																																																																				
663	0.230	0.223	0.216	0.219	0.215	0.215	0.213	0.220	0.180	0.203	0.184	0.178																																																																																				
664	0.231	0.223	0.216	0.220	0.215	0.216	0.213	0.221	0.180	0.203	0.185	0.178																																																																																				
665	0.231	0.224	0.216	0.220	0.216	0.216	0.214	0.221	0.180	0.203	0.185	0.179																																																																																				
666	0.232	0.224	0.217	0.220	0.216	0.216	0.214	0.221	0.181	0.204	0.185	0.179																																																																																				
667	0.233	0.224	0.217	0.221	0.217	0.217	0.215	0.222	0.181	0.204	0.186	0.179																																																																																				
668	0.234	0.225	0.217	0.221	0.217	0.217	0.215	0.222	0.181	0.204	0.186	0.180																																																																																				
669	0.234	0.226	0.218	0.222	0.217	0.217	0.216	0.223	0.182	0.205	0.187	0.180																																																																																				
670	0.235	0.226	0.219	0.223	0.218	0.218	0.216	0.223	0.182	0.205	0.187	0.181																																																																																				
671	0.236	0.227	0.219	0.223	0.218	0.219	0.217	0.224	0.182	0.206	0.188	0.181																																																																																				
672	0.237	0.228	0.220	0.224	0.219	0.220	0.218	0.224	0.183	0.207	0.189	0.182																																																																																				
673	0.239	0.229	0.221	0.225	0.220	0.220	0.218	0.225	0.183	0.207	0.189	0.183																																																																																				
674	0.240	0.229	0.221	0.225	0.221	0.221	0.219	0.226	0.184	0.208	0.190	0.183																																																																																				
675	0.241	0.230	0.222	0.226	0.221	0.222	0.220	0.227	0.184	0.208	0.191	0.184																																																																																				
676	0.242	0.231	0.223	0.227	0.222	0.222	0.221	0.227	0.185	0.209	0.191	0.185																																																																																				
677	0.243	0.232	0.224	0.228	0.223	0.223	0.222	0.228	0.186	0.210	0.192	0.186																																																																																				
678	0.245	0.233	0.225	0.229	0.224	0.224	0.223	0.229	0.186	0.211	0.193	0.186																																																																																				
679	0.246	0.234	0.226	0.230	0.225	0.225	0.224	0.230	0.187	0.212	0.194	0.188																																																																																				
680	0.248	0.236	0.227	0.231	0.226	0.226	0.225	0.231	0.188	0.213	0.195	0.188																																																																																				
681	0.250	0.237	0.228	0.232	0.227	0.228	0.226	0.232	0.189	0.214	0.196	0.190																																																																																				
682	0.251	0.238	0.229	0.234	0.228	0.229	0.227	0.233	0.190	0.215	0.197	0.191																																																																																				
683	0.253	0.240	0.230	0.235	0.229	0.230	0.228	0.234	0.191	0.216	0.198	0.192																																																																																				
684	0.255	0.241	0.231	0.236	0.230	0.231	0.230	0.235	0.192	0.217	0.200	0.193																																																																																				
685	0.257	0.243	0.233	0.237	0.232	0.232	0.231	0.237	0.193	0.218	0.201	0.194																																																																																				
686	0.259	0.244	0.234	0.239	0.233	0.234	0.232	0.238	0.194	0.220	0.202	0.195																																																																																				
687	0.261	0.246	0.235	0.241	0.235	0.235	0.234	0.240	0.195	0.221	0.204	0.197																																																																																				
688	0.263	0.248	0.237	0.242	0.236	0.237	0.235	0.241	0.196	0.223	0.205	0.198																																																																																				
689	0.265	0.249	0.238	0.244	0.237	0.238	0.237	0.243	0.197	0.224	0.207	0.200																																																																																				
690	0.268	0.252	0.240	0.246	0.239	0.240	0.239	0.244	0.198	0.226	0.208	0.201																																																																																				
691	0.270	0.253	0.241	0.247	0.241	0.242	0.240	0.246	0.200	0.227	0.210	0.203																																																																																				
692	0.272	0.255	0.243	0.249	0.242	0.243	0.242	0.248	0.201	0.229	0.211	0.204																																																																																				
693	0.275	0.258	0.245	0.251	0.244	0.245	0.244	0.250	0.203	0.230	0.213	0.206																																																																																				
694	0.278	0.260	0.247	0.254	0.246	0.247	0.246	0.252	0.204	0.232	0.215	0.208																																																																																				
695	0.281	0.262	0.249	0.256	0.248	0.249	0.248	0.254	0.206	0.234	0.217	0.210																																																																																				
696	0.283	0.264	0.251	0.258	0.250	0.252	0.250	0.256	0.207	0.236	0.219	0.212																																																																																				
697	0.287	0.267	0.253	0.260	0.253	0.254	0.253	0.258	0.209	0.238	0.221	0.214																																																																																				
698	0.289	0.269	0.255	0.262	0.255	0.256	0.255	0.260	0.210	0.240	0.223	0.215																																																																																				
699	0.292	0.272	0.257	0.265	0.257	0.258	0.257	0.262	0.212	0.242	0.225	0.218																																																																																				
700	0.295	0.274	0.259	0.267	0.259	0.260	0.259	0.264	0.214	0.244	0.227	0.220																																																																																				
701	0.299	0.277	0.262	0.270	0.261	0.262	0.262	0.266	0.215	0.246	0.230	0.222																																																																																				
702	0.302	0.280	0.264	0.273	0.264	0.265	0.264	0.269	0.217	0.249	0.232	0.224																																																																																				
703	0.306	0.283	0.267	0.276	0.267	0.268	0.268	0.272	0.220	0.252	0.235	0.227																																																																																				
704	0.310	0.286	0.270	0.278	0.269	0.271	0.270	0.274	0.222	0.254	0.238	0.230																																																																																				
705	0.314	0.289	0.272	0.281	0.272	0.274	0.273	0.276	0.224	0.257	0.240	0.232																																																																																				
706	0.318	0.292	0.275	0.285	0.275	0.277	0.276	0.279	0.227	0.259	0.243	0.235																																																																																				
707	0.322	0.296	0.278	0.288	0.278	0.280	0.279	0.282	0.229	0.262	0.246	0.238																																																																																				
708	0.326	0.299	0.281	0.291	0.281	0.283	0.282	0.285	0.231	0.265	0.249	0.241																																																																																				
709	0.331	0.303	0.285	0.295	0.285	0.286	0.286	0.289	0.234	0.268	0.253	0.245																																																																																				
710	0.335	0.306	0.288	0.298	0.288	0.290	0.289	0.292	0.236	0.271	0.256	0.247																																																																																				
711	0.340	0.310	0.291	0.301	0.291	0.293	0.293	0.295	0.239	0.274	0.259	0.251																																																																																				
712	0.344	0.314	0.294	0.305	0.295	0.296	0.296	0.298	0.241	0.278	0.263	0.254																																																																																				
713	0.349	0.318	0.298	0.309	0.299	0.300	0.300	0.302	0.245	0.281	0.266	0.258																																																																																				
714	0.354	0.322	0.302	0.313	0.302	0.304	0.304	0.306	0.248	0.285	0.270	0.261																																																																																				
715	0.360	0.326	0.306	0.317	0.306	0.308	0.308	0.310	0.251	0.288	0.274	0.265																																																																																				
716	0.365	0.331	0.309	0.321	0.310	0.312	0.312	0.314	0.254	0.292	0.278	0.269																																																																																				
717	0.371	0.335	0.313	0.326	0.314	0.316	0.316	0.318	0.257	0.295	0.282	0.273																																																																																				
718	0.376	0.340	0.317	0.330	0.318	0.320	0.320	0.322	0.260	0.299	0.286	0.276																																																																																				
719	0.382	0.344	0.321	0.334	0.322	0.325	0.325	0.326	0.263	0.303	0.290	0.281																																																																																				
720	0.388	0.349	0.326	0.339	0.327	0.329	0.329	0.330	0.267	0.307	0.294	0.285																																																																																				
721	0.394	0.354	0.330	0.344	0.331	0.334	0.334	0.335	0.270	0.311	0.299	0.289																																																																																				
722	0.401	0.360	0.335	0.349	0.336	0.339	0.339	0.339	0.274	0.316	0.304	0.294																																																																																				
723	0.408	0.365	0.340	0.354	0.341	0.343	0.344	0.344	0.278	0.321	0.308	0.298																																																																																				
724	0.414	0.371	0.344	0.360	0.346	0.348	0.349	0.349	0.281	0.325	0.313	0.303																																																																																				
725	0.422	0.377	0.350	0.365	0.351	0.354	0.355	0.354	0.285	0.330	0.319	0.308																																																																																				
726	0.429	0.383	0.354	0.371	0.356	0.359	0.360	0.359	0.289	0.335	0.324	0.313																																																																																				
727	0.436	0.389	0.360	0.377	0.362	0.364	0.366	0.365	0.294	0.340	0.329	0.318																																																																																				
728	0.446	0.396	0.366	0.384	0.368	0.371	0.372	0.371	0.299	0.346	0.336	0.325																																																																																				
729	0.454	0.403	0.372	0.390	0.374	0.377	0.379	0.377	0.303	0.352	0.342	0.330																																																																																				
730	0.462	0.409	0.378	0.397	0.380	0.383	0.385	0.383	0.308	0.357	0.347	0.336																																																																																				
731	0.471	0.416	0.384	0.404	0.386	0.389	0.391	0.389	0.313	0.363	0.354	0.342																																																																																				
732	0.479	0.424	0.390	0.410	0.392	0.396	0.398	0.395	0.318	0.369	0.360	0.348																																																																																				
733	0.488	0.431	0.397	0.417	0.399	0.402	0.405	0.402	0.323	0.375	0.366	0.354																																																																																				
734	0.497	0.438	0.403	0.424	0.405	0.409	0.411	0.408	0.328	0.381	0.373	0.360																																																																																				
735	0.507	0.446	0.410	0.432	0.412	0.416	0.419	0.415	0.333	0.388	0.380	0.367																																																																																				
736	0.518	0.454	0.417	0.440	0.419	0.423	0.426	0.422	0.339	0.394	0.387	0.374																																																																																				
737	0.527	0.463	0.425	0.448	0.427	0.430	0.434	0.429	0.345	0.401	0.394	0.381																																																																																				
738	0.538	0.471	0.432	0.456	0.434	0.438	0.442	0.437	0.350	0.408	0.401	0.388																																																																																				
739	0.549	0.479	0.440	0.464	0.442	0.446	0.450	0.444	0.356	0.415	0.409	0.395																																																																																				
740	0.559	0.488	0.447	0.472	0.449	0.453	0.457	0.451	0.362	0.422	0.416	0.402																																																																																				
741	0.570	0.497	0.455	0.480	0.457	0.461	0.465	0.459	0.368	0.429	0.423	0.410																																																																																				
742	0.582	0.506	0.463	0.489	0.465	0.469	0.474	0.467	0.374	0.437	0.432	0.417																																																																																				
743	0.594	0.515	0.471	0.498	0.473	0.477	0.482	0.475	0.381	0.445	0.440	0.425																																																																																				
744	0.606	0.525	0.479	0.507	0.481	0.486	0.491	0.483	0.387	0.453	0.448	0.433																																																																																				
745	0.618	0.535	0.488	0.517	0.490	0.495	0.501	0.492	0.394	0.461	0.457	0.441																																																																																				
746	0.631	0.546	0.497	0.526	0.499	0.504	0.510	0.501	0.401	0.469	0.466	0.450																																																																																				
747	0.644	0.556	0.507	0.537	0.508	0.514	0.520	0.510	0.408	0.478	0.475	0.459																																																																																				
748	0.658	0.567	0.516	0.547	0.518	0.523	0.530	0.520	0.416	0.487	0.483	0.467																																																																																				
749	0.672	0.579	0.526	0.558	0.528	0.533	0.540	0.529	0.423	0.496	0.493	0.477																																																																																				
750	0.686	0.590	0.536	0.569	0.537	0.543	0.551	0.539	0.431	0.505	0.503	0.486																																																																																				
751	0.701	0.601	0.546	0.579	0.547	0.553	0.561	0.549	0.439	0.514	0.512	0.495																																																																																				
752	0.714	0.613	0.556	0.590	0.557	0.563	0.572	0.558	0.447	0.524	0.522	0.504																																																																																				
753	0.729	0.624	0.566	0.601	0.567	0.574	0.583	0.569	0.454	0.533	0.531	0.513																																																																																				
754	0.744	0.636	0.577	0.613	0.578	0.584	0.594	0.579	0.463	0.543	0.541	0.523																																																																																				
755	0.760	0.649	0.588	0.625	0.589	0.596	0.606	0.590	0.471	0.553	0.552	0.533																																																																																				
756	0.776	0.662	0.599	0.637	0.600	0.607	0.617	0.601	0.480	0.564	0.563	0.544																																																																																				
757	0.792	0.675	0.611	0.649	0.611	0.618	0.629	0.612	0.488	0.574	0.573	0.554																																																																																				
758	0.812	0.691	0.624	0.664	0.625	0.632	0.644	0.626	0.499	0.587	0.587	0.567																																																																																				
759	0.829	0.705	0.637	0.677	0.636	0.644	0.657	0.638	0.509	0.598	0.598	0.577																																																																																				
760	0.848	0.720	0.650	0.692	0.649	0.658	0.670	0.650	0.519	0.610	0.610	0.589																																																																																				
761	0.868	0.736	0.664	0.706	0.663	0.672	0.685	0.664	0.529	0.623	0.622	0.601																																																																																				
762	0.888	0.753	0.679	0.722	0.677	0.686	0.700	0.678	0.540	0.636	0.636	0.614																																																																																				
763	0.906	0.767	0.691	0.736	0.690	0.699	0.714	0.690	0.550	0.648	0.647	0.625																																																																																				
764	0.922	0.780	0.703	0.749	0.701	0.711	0.726	0.702	0.559	0.659	0.658	0.635																																																																																				
765	0.938	0.792	0.713	0.760	0.711	0.721	0.737	0.712	0.567	0.668	0.667	0.644																																																																																				
766	0.956	0.808	0.726	0.774	0.724	0.735	0.751	0.725	0.577	0.680	0.679	0.655																																																																																				
767	0.977	0.825	0.741	0.790	0.739	0.750	0.766	0.739	0.589	0.694	0.693	0.668																																																																																				
768	0.999	0.843	0.757	0.808	0.754	0.766	0.783	0.755	0.601	0.709	0.707	0.682																																																																																				
769	1.021	0.861	0.773	0.825	0.770	0.781	0.800	0.770	0.613	0.723	0.721	0.695																																																																																				
770	1.044	0.879	0.789	0.841	0.785	0.798	0.817	0.785	0.625	0.738	0.734	0.708																																																																																				
771	1.065	0.897	0.804	0.858	0.800	0.813	0.832	0.800	0.636	0.751	0.748	0.721																																																																																				
772	1.086	0.914	0.820	0.874	0.815	0.828	0.849	0.815	0.648	0.765	0.761	0.734																																																																																				
773	1.110	0.934	0.837	0.893	0.832	0.846	0.867	0.832	0.661	0.781	0.775	0.748																																																																																				
774	1.133	0.952	0.853	0.911	0.848	0.862	0.884	0.848	0.674	0.796	0.790	0.761																																																																																				
775	1.156	0.971	0.870	0.928	0.864	0.878	0.901	0.864	0.687	0.811	0.804	0.775																																																																																				
776	1.179	0.991	0.887	0.947	0.881	0.896	0.919	0.880	0.699	0.827	0.819	0.789																																																																																				
777	1.204	1.011	0.905	0.966	0.897	0.914	0.938	0.897	0.713	0.843	0.833	0.803																																																																																				
778	1.229	1.033	0.923	0.986	0.916	0.932	0.957	0.915	0.727	0.860	0.849	0.818																																																																																				
779	1.255	1.053	0.941	1.005	0.934	0.951	0.976	0.933	0.741	0.876	0.864	0.833																																																																																				
780	1.282	1.075	0.961	1.027	0.952	0.970	0.996	0.952	0.755	0.894	0.880	0.848																																																																																				
781	1.306	1.097	0.979	1.046	0.970	0.989	1.016	0.970	0.770	0.911	0.895	0.863																																																																																				
782	1.331	1.118	0.998	1.066	0.988	1.008	1.035	0.988	0.784	0.927	0.911	0.877																																																																																				
783	1.357	1.139	1.017	1.087	1.007	1.027	1.056	1.006	0.798	0.945	0.927	0.892																																																																																				
784	1.386	1.163	1.037	1.109	1.026	1.047	1.077	1.026	0.814	0.964	0.943	0.908																																																																																				
785	1.412	1.188	1.058	1.131	1.047	1.068	1.099	1.046	0.830	0.983	0.960	0.924																																																																																				
786	1.442	1.213	1.080	1.155	1.068	1.091	1.122	1.067	0.846	1.002	0.977	0.941																																																																																				
787	1.471	1.237	1.101	1.178	1.089	1.112	1.144	1.089	0.863	1.021	0.994	0.957																																																																																				
788	1.500	1.262	1.123	1.201	1.110	1.134	1.167	1.109	0.879	1.041	1.011	0.973																																																																																				
789	1.525	1.284	1.143	1.221	1.129	1.154	1.188	1.128	0.894	1.059	1.027	0.987																																																																																				
790	1.551	1.307	1.163	1.244	1.149	1.174	1.209	1.148	0.909	1.077	1.042	1.003																																																																																				
791	1.580	1.331	1.183	1.266	1.169	1.195	1.231	1.168	0.925	1.096	1.059	1.018																																																																																				
792	1.612	1.360	1.209	1.294	1.193	1.221	1.258	1.193	0.945	1.120	1.079	1.037																																																																																				
793	1.640	1.385	1.230	1.317	1.214	1.243	1.279	1.213	0.961	1.139	1.095	1.053																																																																																				
794	1.671	1.410	1.254	1.341	1.236	1.266	1.304	1.236	0.979	1.159	1.113	1.069																																																																																				
795	1.700	1.438	1.277	1.367	1.259	1.290	1.329	1.259	0.997	1.181	1.131	1.086																																																																																				
796	1.728	1.461	1.298	1.389	1.280	1.312	1.351	1.279	1.013	1.200	1.146	1.102																																																																																				
797	1.758	1.488	1.321	1.414	1.302	1.335	1.375	1.302	1.030	1.222	1.164	1.118																																																																																				
798	1.786	1.515	1.344	1.439	1.324	1.359	1.399	1.325	1.048	1.242	1.181	1.134																																																																																				
799	1.817	1.542	1.368	1.464	1.347	1.382	1.424	1.348	1.066	1.264	1.198	1.151																																																																																				
800	1.845	1.569	1.392	1.491	1.371	1.407	1.449	1.371	1.084	1.286	1.215	1.167																																																																																				
801	1.878	1.598	1.417	1.518	1.396	1.433	1.476	1.396	1.104	1.310	1.235	1.186																																																																																				
802	1.907	1.623	1.440	1.541	1.419	1.456	1.500	1.419	1.121	1.330	1.250	1.201																																																																																				
803	1.935	1.650	1.462	1.568	1.441	1.481	1.525	1.441	1.140	1.352	1.268	1.218																																																																																				
804	1.967	1.679	1.489	1.595	1.466	1.507	1.552	1.467	1.159	1.376	1.286	1.234																																																																																				
805	1.998	1.707	1.513	1.622	1.490	1.532	1.578	1.490	1.178	1.397	1.304	1.251																																																																																				
806	2.023	1.733	1.536	1.646	1.512	1.555	1.601	1.512	1.196	1.418	1.321	1.266																																																																																				
807	2.053	1.762	1.561	1.673	1.536	1.581	1.628	1.538	1.215	1.441	1.338	1.283																																																																																				
808	2.082	1.788	1.583	1.698	1.559	1.604	1.652	1.560	1.232	1.462	1.354	1.298																																																																																				
809	2.111	1.815	1.608	1.724	1.582	1.630	1.677	1.584	1.252	1.485	1.371	1.315																																																																																				
810	2.135	1.842	1.631	1.750	1.607	1.654	1.702	1.608	1.270	1.506	1.387	1.330																																																																																				
811	2.166	1.871	1.658	1.777	1.632	1.681	1.730	1.633	1.290	1.530	1.405	1.347																																																																																				
812	2.195	1.899	1.681	1.804	1.656	1.706	1.756	1.658	1.309	1.553	1.422	1.363																																																																																				
813	2.225	1.928	1.707	1.832	1.682	1.733	1.782	1.683	1.329	1.577	1.439	1.380																																																																																				
814	2.252	1.955	1.732	1.858	1.706	1.758	1.808	1.708	1.349	1.600	1.456	1.395																																																																																				
815	2.280	1.984	1.756	1.886	1.730	1.785	1.834	1.733	1.368	1.623	1.473	1.411																																																																																				
816	2.311	2.016	1.784	1.917	1.758	1.815	1.864	1.761	1.391	1.649	1.492	1.429																																																																																				
817	2.338	2.040	1.807	1.941	1.782	1.839	1.889	1.785	1.408	1.671	1.508	1.443																																																																																				
818	2.368	2.072	1.832	1.969	1.807	1.865	1.915	1.811	1.429	1.694	1.525	1.459																																																																																				
819	2.398	2.101	1.860	1.999	1.834	1.895	1.946	1.838	1.451	1.721	1.543	1.476																																																																																				
820	2.432	2.138	1.891	2.034	1.867	1.929	1.979	1.869	1.476	1.751	1.564	1.496																																																																																				
821	2.464	2.171	1.921	2.067	1.896	1.961	2.010	1.899	1.499	1.779	1.583	1.514																																																																																				
822	2.485	2.195	1.942	2.089	1.916	1.982	2.032	1.921	1.516	1.798	1.596	1.527																																																																																				
823	2.499	2.211	1.957	2.105	1.932	1.997	2.048	1.936	1.528	1.813	1.606	1.536																																																																																				
824	2.514	2.226	1.970	2.119	1.945	2.011	2.062	1.950	1.538	1.825	1.615	1.544																																																																																				
825	2.530	2.244	1.987	2.137	1.962	2.029	2.080	1.967	1.553	1.841	1.626	1.555																																																																																				
826	2.561	2.277	2.017	2.170	1.991	2.061	2.111	1.998	1.577	1.871	1.645	1.573																																																																																				
827	2.588	2.309	2.044	2.201	2.021	2.091	2.141	2.027	1.599	1.897	1.663	1.589																																																																																				
828	2.609	2.333	2.066	2.224	2.042	2.115	2.164	2.050	1.617	1.918	1.676	1.602																																																																																				
829	2.622	2.352	2.083	2.243	2.060	2.133	2.181	2.067	1.631	1.934	1.687	1.612																																																																																				
830	2.640	2.373	2.102	2.265	2.079	2.153	2.202	2.087	1.647	1.953	1.698	1.623																																																																																				
831	2.667	2.401	2.127	2.293	2.105	2.181	2.229	2.113	1.668	1.978	1.715	1.638																																																																																				
832	2.693	2.438	2.160	2.329	2.140	2.218	2.265	2.148	1.695	2.011	1.735	1.657																																																																																				
833	2.716	2.465	2.183	2.356	2.164	2.246	2.291	2.174	1.715	2.034	1.750	1.671																																																																																				
834	2.732	2.483	2.201	2.373	2.183	2.262	2.310	2.193	1.730	2.052	1.761	1.681																																																																																				
835	2.748	2.502	2.217	2.392	2.200	2.283	2.327	2.211	1.744	2.069	1.771	1.690																																																																																				
836	2.756	2.518	2.232	2.410	2.215	2.298	2.343	2.227	1.758	2.083	1.780	1.699																																																																																				
837	2.774	2.539	2.251	2.430	2.234	2.318	2.364	2.247	1.774	2.102	1.791	1.709																																																																																				
838	2.790	2.561	2.272	2.452	2.261	2.343	2.387	2.271	1.793	2.125	1.805	1.722																																																																																				
839	2.807	2.585	2.294	2.473	2.281	2.367	2.410	2.295	1.810	2.148	1.818	1.733																																																																																				
840	2.821	2.609	2.311	2.498	2.300	2.389	2.428	2.315	1.827	2.166	1.828	1.743																																																																																				
841	2.833	2.621	2.326	2.518	2.319	2.408	2.449	2.330	1.841	2.180	1.837	1.752																																																																																				
842	2.840	2.630	2.341	2.535	2.335	2.422	2.460	2.350	1.854	2.196	1.846	1.760																																																																																				
843	2.847	2.651	2.355	2.547	2.349	2.439	2.476	2.368	1.868	2.212	1.855	1.769																																																																																				
844	2.862	2.675	2.374	2.569	2.371	2.461	2.498	2.386	1.884	2.232	1.866	1.778																																																																																				
845	2.871	2.696	2.391	2.589	2.389	2.483	2.514	2.405	1.899	2.252	1.875	1.787																																																																																				
846	2.888	2.706	2.407	2.605	2.407	2.501	2.525	2.420	1.913	2.265	1.883	1.795																																																																																				
847	2.890	2.725	2.419	2.620	2.422	2.515	2.546	2.438	1.927	2.281	1.892	1.802																																																																																				
848	2.895	2.730	2.430	2.630	2.435	2.529	2.560	2.453	1.937	2.294	1.898	1.809																																																																																				
849	2.898	2.739	2.444	2.654	2.449	2.541	2.574	2.467	1.951	2.309	1.906	1.815																																																																																				
850	2.895	2.762	2.458	2.668	2.463	2.560	2.587	2.486	1.963	2.325	1.914	1.821																																																																																				
851	2.907	2.766	2.469	2.676	2.478	2.573	2.601	2.497	1.973	2.335	1.919	1.826																																																																																				
852	2.905	2.788	2.479	2.688	2.492	2.594	2.611	2.514	1.986	2.350	1.926	1.833																																																																																				
853	2.912	2.799	2.486	2.698	2.506	2.602	2.620	2.524	1.996	2.363	1.932	1.838																																																																																				
854	2.917	2.797	2.498	2.712	2.517	2.616	2.634	2.537	2.007	2.377	1.938	1.843																																																																																				
855	2.914	2.815	2.508	2.727	2.527	2.626	2.644	2.549	2.016	2.387	1.942	1.847																																																																																				
856	2.919	2.822	2.515	2.736	2.540	2.641	2.650	2.561	2.026	2.399	1.947	1.852																																																																																				
857	2.909	2.834	2.525	2.747	2.554	2.648	2.664	2.578	2.036	2.409	1.951	1.855																																																																																				
858	2.911	2.832	2.533	2.761	2.562	2.664	2.671	2.588	2.046	2.419	1.955	1.859																																																																																				
859	2.914	2.844	2.536	2.760	2.568	2.672	2.681	2.600	2.053	2.428	1.960	1.862																																																																																				
860	2.920	2.849	2.544	2.775	2.580	2.682	2.691	2.604	2.062	2.438	1.961	1.865																																																																																				
861	2.913	2.848	2.548	2.777	2.589	2.682	2.695	2.612	2.068	2.444	1.965	1.867																																																																																				
862	2.907	2.859	2.554	2.785	2.594	2.703	2.692	2.621	2.075	2.452	1.966	1.869																																																																																				
863	2.902	2.855	2.560	2.793	2.602	2.701	2.701	2.626	2.080	2.464	1.969	1.871																																																																																				
864	2.897	2.874	2.563	2.800	2.605	2.713	2.706	2.633	2.088	2.470	1.971	1.872																																																																																				
865	2.891	2.876	2.570	2.803	2.620	2.717	2.714	2.644	2.092	2.473	1.972	1.873																																																																																				
866	2.891	2.867	2.571	2.808	2.616	2.725	2.719	2.650	2.098	2.482	1.974	1.875																																																																																				
867	2.877	2.871	2.570	2.813	2.629	2.732	2.723	2.654	2.103	2.485	1.974	1.874																																																																																				
868	2.874	2.875	2.578	2.814	2.632	2.737	2.725	2.659	2.108	2.492	1.976	1.875																																																																																				
869	2.869	2.874	2.573	2.815	2.639	2.734	2.727	2.663	2.111	2.498	1.974	1.875																																																																																				
870	2.851	2.875	2.572	2.821	2.640	2.740	2.731	2.667	2.115	2.501	1.975	1.874																																																																																				
871	2.852	2.870	2.573	2.817	2.644	2.742	2.728	2.668	2.118	2.506	1.973	1.874																																																																																				
872	2.840	2.874	2.575	2.825	2.644	2.744	2.732	2.676	2.122	2.506	1.972	1.872																																																																																				
873	2.828	2.871	2.570	2.828	2.647	2.750	2.729	2.675	2.122	2.514	1.970	1.871																																																																																				
874	2.815	2.863	2.566	2.827	2.647	2.748	2.724	2.680	2.125	2.516	1.969	1.869																																																																																				
875	2.803	2.873	2.567	2.822	2.646	2.755	2.728	2.681	2.127	2.512	1.968	1.867																																																																																				
876	2.783	2.862	2.568	2.809	2.651	2.748	2.724	2.683	2.125	2.516	1.964	1.863																																																																																				
877	2.775	2.851	2.558	2.811	2.645	2.751	2.719	2.681	2.126	2.515	1.961	1.861																																																																																				
878	2.754	2.849	2.551	2.812	2.640	2.752	2.714	2.679	2.124	2.512	1.956	1.855																																																																																				
879	2.738	2.838	2.545	2.808	2.642	2.746	2.707	2.674	2.122	2.512	1.950	1.850																																																																																				
880	2.719	2.832	2.539	2.802	2.639	2.743	2.701	2.674	2.120	2.510	1.945	1.845																																																																																				
881	2.710	2.829	2.536	2.799	2.636	2.741	2.697	2.673	2.120	2.509	1.943	1.842																																																																																				
882	2.701	2.825	2.533	2.797	2.636	2.740	2.695	2.674	2.120	2.509	1.942	1.841																																																																																				
883	2.693	2.819	2.531	2.793	2.634	2.736	2.692	2.672	2.120	2.508	1.940	1.839																																																																																				
884	2.681	2.814	2.525	2.787	2.633	2.731	2.686	2.672	2.119	2.507	1.937	1.836																																																																																				
885	2.664	2.803	2.518	2.780	2.626	2.726	2.678	2.666	2.116	2.502	1.931	1.830																																																																																				
886	2.634	2.786	2.503	2.766	2.614	2.713	2.665	2.659	2.109	2.494	1.923	1.821																																																																																				
887	2.612	2.772	2.490	2.755	2.609	2.708	2.653	2.651	2.102	2.486	1.915	1.814																																																																																				
888	2.593	2.755	2.479	2.746	2.598	2.698	2.643	2.642	2.098	2.481	1.908	1.807																																																																																				
889	2.571	2.746	2.468	2.736	2.593	2.687	2.631	2.632	2.092	2.474	1.901	1.800																																																																																				
890	2.550	2.729	2.456	2.718	2.585	2.676	2.620	2.624	2.086	2.466	1.893	1.793																																																																																				
891	2.526	2.716	2.446	2.712	2.574	2.669	2.607	2.616	2.079	2.458	1.885	1.784																																																																																				
892	2.497	2.698	2.426	2.694	2.562	2.656	2.592	2.603	2.070	2.450	1.875	1.774																																																																																				
893	2.473	2.676	2.413	2.682	2.550	2.644	2.575	2.591	2.062	2.439	1.865	1.766																																																																																				
894	2.453	2.665	2.401	2.671	2.544	2.638	2.566	2.587	2.056	2.432	1.859	1.758																																																																																				
895	2.439	2.657	2.393	2.662	2.536	2.630	2.557	2.582	2.051	2.425	1.853	1.753																																																																																				
896	2.424	2.645	2.385	2.654	2.530	2.622	2.548	2.574	2.046	2.420	1.848	1.748																																																																																				
897	2.403	2.634	2.374	2.644	2.521	2.614	2.534	2.568	2.041	2.413	1.841	1.742																																																																																				
898	2.385	2.617	2.362	2.629	2.511	2.599	2.524	2.555	2.034	2.405	1.833	1.734																																																																																				
899	2.358	2.595	2.343	2.607	2.496	2.585	2.504	2.541	2.023	2.391	1.823	1.724																																																																																				
900	2.331	2.576	2.325	2.593	2.481	2.570	2.488	2.530	2.011	2.379	1.812	1.713																																																																																				
901	2.297	2.552	2.304	2.571	2.464	2.550	2.467	2.509	1.998	2.363	1.798	1.700																																																																																				
902	2.269	2.529	2.284	2.552	2.447	2.533	2.447	2.492	1.985	2.348	1.786	1.688																																																																																				
903	2.242	2.510	2.268	2.537	2.434	2.520	2.429	2.480	1.974	2.336	1.775	1.679																																																																																				
904	2.227	2.498	2.257	2.526	2.426	2.509	2.418	2.472	1.968	2.329	1.769	1.672																																																																																				
905	2.215	2.487	2.248	2.517	2.417	2.501	2.409	2.466	1.963	2.324	1.764	1.667																																																																																				
906	2.199	2.474	2.238	2.503	2.408	2.491	2.398	2.457	1.957	2.314	1.758	1.661																																																																																				
907	2.178	2.458	2.224	2.488	2.396	2.476	2.384	2.445	1.948	2.304	1.750	1.654																																																																																				
908	2.144	2.429	2.200	2.465	2.374	2.455	2.359	2.425	1.933	2.285	1.735	1.639																																																																																				
909	2.115	2.402	2.178	2.443	2.355	2.438	2.336	2.406	1.918	2.268	1.722	1.626																																																																																				
910	2.087	2.381	2.158	2.422	2.340	2.415	2.316	2.390	1.905	2.253	1.709	1.615																																																																																				
911	2.063	2.360	2.139	2.404	2.324	2.401	2.296	2.371	1.891	2.237	1.697	1.604																																																																																				
912	2.030	2.333	2.115	2.378	2.300	2.376	2.269	2.350	1.875	2.217	1.683	1.589																																																																																				
913	1.998	2.304	2.091	2.353	2.282	2.354	2.245	2.328	1.858	2.200	1.668	1.576																																																																																				
914	1.968	2.279	2.068	2.330	2.261	2.334	2.223	2.308	1.842	2.181	1.654	1.562																																																																																				
915	1.951	2.263	2.055	2.317	2.248	2.319	2.209	2.297	1.833	2.170	1.645	1.554																																																																																				
916	1.938	2.251	2.046	2.306	2.238	2.309	2.199	2.289	1.827	2.162	1.639	1.548																																																																																				
917	1.925	2.241	2.037	2.296	2.231	2.300	2.189	2.281	1.822	2.155	1.634	1.544																																																																																				
918	1.911	2.229	2.026	2.285	2.221	2.290	2.179	2.273	1.815	2.147	1.628	1.538																																																																																				
919	1.887	2.207	2.007	2.265	2.204	2.272	2.159	2.255	1.802	2.131	1.617	1.527																																																																																				
920	1.859	2.182	1.985	2.241	2.183	2.249	2.135	2.234	1.786	2.112	1.603	1.514																																																																																				
921	1.830	2.155	1.961	2.217	2.162	2.227	2.111	2.213	1.769	2.092	1.589	1.500																																																																																				
922	1.804	2.131	1.940	2.195	2.142	2.205	2.089	2.194	1.754	2.076	1.576	1.488																																																																																				
923	1.778	2.108	1.919	2.172	2.122	2.184	2.067	2.175	1.738	2.056	1.562	1.475																																																																																				
924	1.755	2.084	1.901	2.152	2.105	2.166	2.048	2.156	1.726	2.042	1.551	1.465																																																																																				
925	1.731	2.062	1.881	2.130	2.085	2.146	2.027	2.138	1.710	2.023	1.538	1.453																																																																																				
926	1.708	2.041	1.861	2.110	2.068	2.127	2.005	2.120	1.697	2.007	1.527	1.442																																																																																				
927	1.684	2.017	1.842	2.090	2.050	2.109	1.986	2.101	1.683	1.991	1.515	1.431																																																																																				
928	1.661	1.994	1.821	2.069	2.030	2.087	1.964	2.082	1.668	1.972	1.503	1.419																																																																																				
929	1.640	1.973	1.804	2.049	2.013	2.068	1.945	2.064	1.654	1.955	1.491	1.408																																																																																				
930	1.618	1.953	1.785	2.030	1.997	2.050	1.927	2.048	1.641	1.940	1.481	1.397																																																																																				
931	1.597	1.932	1.767	2.009	1.980	2.030	1.907	2.031	1.627	1.924	1.470	1.387																																																																																				
932	1.576	1.911	1.749	1.990	1.961	2.014	1.887	2.012	1.614	1.909	1.458	1.376																																																																																				
933	1.553	1.888	1.728	1.966	1.940	1.992	1.864	1.992	1.598	1.890	1.445	1.364																																																																																				
934	1.530	1.866	1.708	1.946	1.923	1.972	1.845	1.973	1.583	1.873	1.434	1.353																																																																																				
935	1.508	1.843	1.688	1.925	1.903	1.951	1.823	1.953	1.568	1.854	1.421	1.341																																																																																				
936	1.489	1.824	1.671	1.906	1.886	1.934	1.806	1.937	1.554	1.839	1.410	1.331																																																																																				
937	1.471	1.805	1.655	1.888	1.871	1.917	1.788	1.922	1.542	1.825	1.400	1.322																																																																																				
938	1.456	1.790	1.641	1.874	1.857	1.903	1.774	1.908	1.532	1.812	1.392	1.314																																																																																				
939	1.440	1.774	1.627	1.858	1.844	1.887	1.759	1.894	1.521	1.800	1.384	1.306																																																																																				
940	1.423	1.755	1.612	1.841	1.828	1.871	1.743	1.879	1.510	1.785	1.375	1.297																																																																																				
941	1.405	1.736	1.594	1.822	1.811	1.852	1.724	1.862	1.496	1.768	1.363	1.287																																																																																				
942	1.385	1.714	1.575	1.802	1.792	1.832	1.704	1.842	1.481	1.752	1.352	1.276																																																																																				
943	1.369	1.697	1.559	1.784	1.776	1.816	1.687	1.826	1.468	1.737	1.342	1.267																																																																																				
944	1.351	1.678	1.543	1.765	1.761	1.799	1.670	1.811	1.455	1.722	1.332	1.257																																																																																				
945	1.336	1.662	1.528	1.750	1.746	1.783	1.655	1.795	1.444	1.708	1.324	1.249																																																																																				
946	1.320	1.644	1.513	1.733	1.730	1.766	1.638	1.779	1.431	1.693	1.314	1.240																																																																																				
947	1.305	1.627	1.498	1.717	1.715	1.751	1.623	1.764	1.420	1.680	1.306	1.232																																																																																				
948	1.290	1.610	1.484	1.700	1.700	1.735	1.606	1.749	1.408	1.665	1.296	1.223																																																																																				
949	1.277	1.595	1.470	1.685	1.686	1.720	1.591	1.735	1.397	1.653	1.288	1.215																																																																																				
950	1.265	1.581	1.457	1.671	1.674	1.707	1.578	1.723	1.387	1.641	1.281	1.208																																																																																				
951	1.254	1.570	1.447	1.660	1.663	1.695	1.567	1.713	1.379	1.631	1.275	1.203																																																																																				
952	1.246	1.559	1.438	1.649	1.654	1.685	1.557	1.704	1.371	1.622	1.270	1.198																																																																																				
953	1.235	1.546	1.426	1.637	1.643	1.673	1.545	1.691	1.363	1.612	1.263	1.192																																																																																				
954	1.223	1.532	1.413	1.623	1.630	1.659	1.532	1.678	1.352	1.599	1.256	1.185																																																																																				
955	1.211	1.517	1.401	1.609	1.616	1.645	1.518	1.664	1.341	1.586	1.249	1.178																																																																																				
956	1.199	1.503	1.387	1.595	1.603	1.631	1.505	1.651	1.331	1.575	1.241	1.171																																																																																				
957	1.187	1.488	1.375	1.580	1.589	1.617	1.491	1.637	1.320	1.561	1.233	1.164																																																																																				
958	1.173	1.473	1.361	1.563	1.574	1.601	1.474	1.623	1.308	1.547	1.223	1.155																																																																																				
959	1.161	1.457	1.347	1.549	1.560	1.586	1.460	1.607	1.297	1.533	1.215	1.147																																																																																				
960	1.149	1.442	1.333	1.533	1.546	1.570	1.446	1.593	1.285	1.520	1.206	1.138																																																																																				
961	1.135	1.426	1.318	1.516	1.529	1.554	1.430	1.576	1.272	1.504	1.196	1.129																																																																																				
962	1.119	1.407	1.302	1.498	1.513	1.537	1.413	1.559	1.259	1.489	1.186	1.119																																																																																				
963	1.107	1.392	1.289	1.484	1.499	1.522	1.399	1.544	1.247	1.475	1.176	1.111																																																																																				
964	1.093	1.375	1.273	1.466	1.482	1.504	1.381	1.528	1.234	1.460	1.165	1.100																																																																																				
965	1.078	1.358	1.258	1.448	1.465	1.486	1.364	1.510	1.219	1.444	1.154	1.090																																																																																				
966	1.063	1.339	1.240	1.429	1.448	1.468	1.347	1.492	1.206	1.426	1.143	1.078																																																																																				
967	1.050	1.323	1.227	1.415	1.431	1.452	1.331	1.476	1.193	1.412	1.133	1.069																																																																																				
968	1.037	1.309	1.212	1.398	1.417	1.436	1.317	1.461	1.181	1.397	1.123	1.060																																																																																				
969	1.024	1.293	1.199	1.382	1.402	1.420	1.301	1.446	1.169	1.383	1.113	1.051																																																																																				
970	1.011	1.277	1.184	1.366	1.386	1.404	1.286	1.430	1.156	1.368	1.103	1.041																																																																																				
971	0.998	1.262	1.170	1.350	1.370	1.388	1.271	1.415	1.143	1.353	1.093	1.031																																																																																				
972	0.986	1.245	1.155	1.333	1.355	1.372	1.255	1.398	1.131	1.338	1.082	1.021																																																																																				
973	0.972	1.230	1.141	1.318	1.339	1.355	1.239	1.382	1.118	1.323	1.071	1.011																																																																																				
974	0.957	1.210	1.124	1.298	1.321	1.336	1.222	1.363	1.103	1.304	1.059	1.000																																																																																				
975	0.941	1.190	1.105	1.277	1.301	1.315	1.201	1.341	1.086	1.284	1.045	0.987																																																																																				
976	0.924	1.169	1.087	1.255	1.280	1.293	1.181	1.319	1.068	1.265	1.031	0.973																																																																																				
977	0.910	1.153	1.072	1.238	1.264	1.277	1.164	1.302	1.055	1.249	1.019	0.962																																																																																				
978	0.901	1.142	1.062	1.227	1.252	1.265	1.153	1.292	1.046	1.238	1.011	0.955																																																																																				
979	0.895	1.133	1.054	1.218	1.243	1.256	1.145	1.284	1.040	1.230	1.006	0.950																																																																																				
980	0.889	1.127	1.048	1.211	1.236	1.248	1.139	1.278	1.035	1.223	1.001	0.945																																																																																				
981	0.882	1.118	1.040	1.202	1.228	1.239	1.131	1.270	1.028	1.216	0.996	0.940																																																																																				
982	0.873	1.107	1.030	1.190	1.216	1.227	1.120	1.258	1.020	1.205	0.988	0.933																																																																																				
983	0.858	1.089	1.014	1.171	1.198	1.208	1.101	1.238	1.004	1.186	0.975	0.921																																																																																				
984	0.839	1.065	0.993	1.148	1.174	1.185	1.078	1.214	0.984	1.163	0.959	0.905																																																																																				
985	0.825	1.045	0.975	1.127	1.154	1.164	1.058	1.193	0.967	1.144	0.944	0.891																																																																																				
986	0.811	1.028	0.959	1.109	1.136	1.145	1.042	1.175	0.953	1.126	0.932	0.879																																																																																				
987	0.796	1.010	0.942	1.089	1.118	1.126	1.024	1.154	0.938	1.108	0.918	0.868																																																																																				
988	0.779	0.989	0.923	1.068	1.096	1.104	1.003	1.132	0.920	1.087	0.904	0.854																																																																																				
989	0.766	0.972	0.909	1.051	1.079	1.087	0.987	1.113	0.906	1.071	0.891	0.842																																																																																				
990	0.755	0.958	0.895	1.036	1.065	1.071	0.972	1.098	0.893	1.056	0.880	0.832																																																																																				
991	0.748	0.949	0.886	1.026	1.054	1.061	0.962	1.089	0.885	1.046	0.873	0.825																																																																																				
992	0.742	0.942	0.880	1.018	1.047	1.053	0.956	1.083	0.880	1.040	0.868	0.820																																																																																				
993	0.737	0.937	0.875	1.012	1.041	1.047	0.951	1.078	0.876	1.034	0.864	0.816																																																																																				
994	0.732	0.929	0.868	1.004	1.033	1.039	0.944	1.071	0.870	1.027	0.859	0.811																																																																																				
995	0.724	0.919	0.859	0.993	1.023	1.028	0.934	1.060	0.862	1.017	0.852	0.805																																																																																				
996	0.712	0.904	0.845	0.977	1.007	1.012	0.919	1.043	0.849	1.002	0.840	0.794																																																																																				
997	0.697	0.885	0.828	0.958	0.988	0.993	0.900	1.023	0.832	0.982	0.827	0.781																																																																																				
998	0.684	0.868	0.813	0.941	0.970	0.974	0.883	1.005	0.817	0.965	0.813	0.768																																																																																				
999	0.672	0.854	0.799	0.925	0.954	0.958	0.868	0.989	0.804	0.950	0.801	0.757																																																																																				

结果
	1	2	3	4	5	6	7	8	9	10	11	12
A	2.920	2.876	2.578	2.828	2.651	2.755	2.732	2.683	2.127	2.516	1.976	1.875	Mean Max OD [Spectrum]
B	?????	?????	?????	?????	?????	?????	?????	?????	?????	?????	?????	?????	Mean Max OD [Spectrum]
C	?????	?????	?????	?????	?????	?????	?????	?????	?????	?????	?????	?????	Mean Max OD [Spectrum]
D	?????	?????	?????	?????	?????	?????	?????	?????	?????	?????	?????	?????	Mean Max OD [Spectrum]
E	?????	?????	?????	?????	?????	?????	?????	?????	?????	?????	?????	?????	Mean Max OD [Spectrum]
F	?????	?????	?????	?????	?????	?????	?????	?????	?????	?????	?????	?????	Mean Max OD [Spectrum]
G	?????	?????	?????	?????	?????	?????	?????	?????	?????	?????	?????	?????	Mean Max OD [Spectrum]
H	?????	?????	?????	?????	?????	?????	?????	?????	?????	?????	?????	?????	Mean Max OD [Spectrum]

