

软件版本	3.11.19



实验文件路径:	
方案文件路径:	



板编号	板 1
日期	2023/3/28
时间	9:16:54
检测仪类型:	Epoch 2
检测仪序列号:	2205170B
检测类型	检测仪

程序详细信息

板类型	96 WELL PLATE
完成后弹出板	
检测	吸收光 光谱
	A1..A12
	开始: 400 nm,  停止: 999 nm,  步骤: 1 nm
	检测前校准
	检测速度: 正常,  延迟: 100 msec,  测量值/数据点: 8

Spectrum

波长	A1	A2	A3	A4	A5	A6	A7	A8	A9	A10	A11	A12	B1	B2	B3	B4	B5	B6	B7	B8	B9	B10	B11	B12	C1	C2	C3	C4	C5	C6	C7	C8	C9	C10	C11	C12	D1	D2	D3	D4	D5	D6	D7	D8	D9	D10	D11	D12	E1	E2	E3	E4	E5	E6	E7	E8	E9	E10	E11	E12	F1	F2	F3	F4	F5	F6	F7	F8	F9	F10	F11	F12	G1	G2	G3	G4	G5	G6	G7	G8	G9	G10	G11	G12	H1	H2	H3	H4	H5	H6	H7	H8	H9	H10	H11	H12
400	0.537	0.548	0.464	0.425	0.470	0.533	0.501	0.568	0.480	0.543	0.557	0.467																																																																																				
401	0.536	0.547	0.463	0.424	0.469	0.532	0.500	0.566	0.479	0.541	0.556	0.466																																																																																				
402	0.534	0.545	0.462	0.423	0.467	0.531	0.498	0.565	0.478	0.540	0.554	0.464																																																																																				
403	0.533	0.544	0.461	0.422	0.466	0.529	0.497	0.563	0.477	0.538	0.553	0.463																																																																																				
404	0.532	0.543	0.460	0.421	0.465	0.528	0.496	0.562	0.475	0.537	0.551	0.462																																																																																				
405	0.531	0.542	0.459	0.420	0.464	0.527	0.495	0.560	0.474	0.536	0.550	0.461																																																																																				
406	0.529	0.540	0.458	0.419	0.463	0.525	0.493	0.559	0.473	0.535	0.549	0.460																																																																																				
407	0.528	0.539	0.457	0.418	0.462	0.524	0.492	0.558	0.472	0.533	0.548	0.459																																																																																				
408	0.527	0.538	0.456	0.417	0.461	0.523	0.491	0.556	0.471	0.532	0.546	0.458																																																																																				
409	0.526	0.537	0.455	0.416	0.460	0.522	0.490	0.555	0.470	0.531	0.545	0.457																																																																																				
410	0.524	0.535	0.453	0.415	0.458	0.520	0.489	0.554	0.469	0.529	0.544	0.455																																																																																				
411	0.523	0.534	0.452	0.414	0.457	0.519	0.487	0.553	0.468	0.528	0.543	0.454																																																																																				
412	0.522	0.533	0.451	0.413	0.456	0.518	0.486	0.551	0.467	0.527	0.541	0.453																																																																																				
413	0.521	0.532	0.450	0.412	0.455	0.517	0.485	0.550	0.466	0.526	0.540	0.452																																																																																				
414	0.519	0.530	0.449	0.411	0.454	0.515	0.484	0.549	0.465	0.524	0.539	0.451																																																																																				
415	0.518	0.529	0.448	0.410	0.453	0.514	0.483	0.547	0.464	0.523	0.538	0.450																																																																																				
416	0.517	0.528	0.448	0.409	0.452	0.513	0.482	0.546	0.463	0.522	0.537	0.449																																																																																				
417	0.516	0.527	0.447	0.408	0.451	0.512	0.481	0.545	0.462	0.521	0.535	0.448																																																																																				
418	0.515	0.526	0.446	0.407	0.450	0.511	0.479	0.544	0.461	0.520	0.534	0.447																																																																																				
419	0.514	0.524	0.445	0.406	0.449	0.510	0.478	0.543	0.460	0.519	0.533	0.446																																																																																				
420	0.513	0.523	0.444	0.405	0.448	0.508	0.477	0.541	0.459	0.517	0.532	0.445																																																																																				
421	0.512	0.522	0.443	0.404	0.447	0.507	0.476	0.540	0.458	0.516	0.531	0.444																																																																																				
422	0.511	0.521	0.442	0.404	0.446	0.506	0.475	0.539	0.457	0.515	0.530	0.443																																																																																				
423	0.510	0.521	0.441	0.403	0.445	0.506	0.475	0.538	0.456	0.515	0.529	0.443																																																																																				
424	0.509	0.520	0.441	0.402	0.444	0.505	0.474	0.537	0.455	0.514	0.528	0.442																																																																																				
425	0.508	0.519	0.440	0.401	0.444	0.504	0.473	0.536	0.455	0.513	0.527	0.441																																																																																				
426	0.507	0.518	0.439	0.401	0.443	0.503	0.472	0.535	0.454	0.512	0.526	0.440																																																																																				
427	0.506	0.517	0.438	0.400	0.442	0.502	0.471	0.534	0.453	0.511	0.526	0.440																																																																																				
428	0.505	0.516	0.437	0.399	0.441	0.501	0.470	0.533	0.452	0.510	0.525	0.439																																																																																				
429	0.504	0.515	0.436	0.398	0.440	0.500	0.469	0.532	0.451	0.509	0.524	0.438																																																																																				
430	0.503	0.514	0.435	0.397	0.439	0.499	0.468	0.531	0.451	0.508	0.523	0.437																																																																																				
431	0.503	0.513	0.435	0.397	0.439	0.498	0.468	0.530	0.450	0.507	0.522	0.436																																																																																				
432	0.502	0.512	0.434	0.396	0.438	0.497	0.467	0.529	0.449	0.506	0.521	0.435																																																																																				
433	0.501	0.511	0.433	0.395	0.437	0.496	0.466	0.529	0.448	0.505	0.520	0.435																																																																																				
434	0.500	0.510	0.432	0.395	0.436	0.495	0.465	0.528	0.448	0.504	0.519	0.434																																																																																				
435	0.499	0.510	0.431	0.394	0.435	0.494	0.464	0.527	0.447	0.503	0.518	0.433																																																																																				
436	0.498	0.509	0.431	0.393	0.435	0.494	0.464	0.526	0.446	0.503	0.518	0.433																																																																																				
437	0.497	0.508	0.430	0.393	0.434	0.493	0.463	0.525	0.445	0.502	0.517	0.432																																																																																				
438	0.496	0.507	0.429	0.392	0.433	0.492	0.462	0.524	0.445	0.501	0.516	0.431																																																																																				
439	0.495	0.506	0.429	0.391	0.432	0.491	0.461	0.523	0.444	0.500	0.515	0.430																																																																																				
440	0.495	0.505	0.428	0.391	0.432	0.490	0.461	0.523	0.443	0.499	0.514	0.430																																																																																				
441	0.494	0.505	0.427	0.390	0.431	0.490	0.460	0.522	0.443	0.499	0.514	0.429																																																																																				
442	0.493	0.504	0.427	0.390	0.431	0.489	0.459	0.521	0.442	0.498	0.513	0.429																																																																																				
443	0.493	0.503	0.426	0.389	0.430	0.489	0.459	0.521	0.442	0.498	0.512	0.428																																																																																				
444	0.492	0.502	0.425	0.388	0.429	0.488	0.458	0.520	0.441	0.497	0.512	0.428																																																																																				
445	0.491	0.502	0.425	0.388	0.429	0.487	0.457	0.519	0.440	0.496	0.511	0.427																																																																																				
446	0.491	0.501	0.424	0.387	0.428	0.486	0.457	0.518	0.440	0.496	0.510	0.426																																																																																				
447	0.490	0.500	0.424	0.387	0.428	0.486	0.456	0.518	0.439	0.495	0.510	0.426																																																																																				
448	0.489	0.500	0.423	0.386	0.427	0.485	0.456	0.517	0.439	0.494	0.509	0.426																																																																																				
449	0.489	0.499	0.422	0.386	0.427	0.485	0.455	0.517	0.438	0.494	0.509	0.425																																																																																				
450	0.488	0.498	0.422	0.385	0.426	0.484	0.455	0.516	0.438	0.493	0.508	0.425																																																																																				
451	0.488	0.498	0.421	0.385	0.425	0.484	0.454	0.516	0.437	0.493	0.508	0.424																																																																																				
452	0.487	0.497	0.421	0.384	0.425	0.483	0.454	0.515	0.437	0.492	0.507	0.424																																																																																				
453	0.487	0.497	0.420	0.384	0.425	0.483	0.453	0.515	0.437	0.492	0.507	0.424																																																																																				
454	0.486	0.497	0.420	0.384	0.424	0.482	0.453	0.514	0.436	0.492	0.507	0.423																																																																																				
455	0.486	0.496	0.419	0.383	0.424	0.482	0.452	0.514	0.436	0.491	0.506	0.423																																																																																				
456	0.486	0.496	0.419	0.383	0.423	0.481	0.452	0.513	0.436	0.491	0.506	0.423																																																																																				
457	0.485	0.495	0.419	0.383	0.423	0.481	0.452	0.513	0.435	0.490	0.506	0.422																																																																																				
458	0.485	0.495	0.419	0.382	0.423	0.481	0.451	0.513	0.435	0.490	0.505	0.422																																																																																				
459	0.485	0.495	0.418	0.382	0.423	0.481	0.451	0.513	0.435	0.490	0.505	0.422																																																																																				
460	0.485	0.495	0.418	0.382	0.423	0.480	0.451	0.512	0.435	0.490	0.505	0.422																																																																																				
461	0.485	0.495	0.418	0.382	0.423	0.480	0.451	0.512	0.435	0.490	0.505	0.422																																																																																				
462	0.485	0.495	0.418	0.382	0.422	0.480	0.451	0.512	0.435	0.490	0.505	0.422																																																																																				
463	0.485	0.495	0.418	0.382	0.423	0.480	0.451	0.513	0.435	0.490	0.505	0.422																																																																																				
464	0.485	0.495	0.418	0.382	0.422	0.480	0.451	0.513	0.435	0.490	0.505	0.422																																																																																				
465	0.485	0.495	0.418	0.382	0.422	0.480	0.451	0.513	0.435	0.490	0.505	0.422																																																																																				
466	0.485	0.495	0.418	0.382	0.423	0.481	0.451	0.513	0.436	0.491	0.506	0.423																																																																																				
467	0.485	0.495	0.418	0.382	0.423	0.481	0.452	0.513	0.436	0.491	0.506	0.423																																																																																				
468	0.486	0.496	0.418	0.383	0.423	0.481	0.452	0.514	0.436	0.491	0.506	0.423																																																																																				
469	0.486	0.496	0.418	0.383	0.423	0.482	0.453	0.514	0.437	0.492	0.507	0.424																																																																																				
470	0.487	0.497	0.419	0.383	0.424	0.482	0.453	0.515	0.437	0.492	0.508	0.424																																																																																				
471	0.487	0.498	0.419	0.384	0.424	0.483	0.454	0.515	0.438	0.493	0.508	0.425																																																																																				
472	0.488	0.498	0.420	0.384	0.425	0.484	0.454	0.516	0.439	0.494	0.509	0.425																																																																																				
473	0.489	0.499	0.420	0.385	0.426	0.484	0.455	0.517	0.439	0.495	0.510	0.426																																																																																				
474	0.490	0.500	0.421	0.386	0.427	0.485	0.456	0.518	0.440	0.496	0.511	0.427																																																																																				
475	0.491	0.501	0.422	0.386	0.427	0.486	0.457	0.519	0.441	0.497	0.512	0.428																																																																																				
476	0.492	0.503	0.423	0.387	0.428	0.488	0.458	0.521	0.443	0.498	0.514	0.429																																																																																				
477	0.494	0.504	0.424	0.388	0.430	0.489	0.460	0.523	0.444	0.500	0.515	0.431																																																																																				
478	0.495	0.506	0.425	0.389	0.431	0.491	0.461	0.524	0.445	0.502	0.517	0.432																																																																																				
479	0.497	0.508	0.426	0.391	0.432	0.493	0.463	0.526	0.447	0.504	0.519	0.434																																																																																				
480	0.499	0.510	0.428	0.392	0.434	0.494	0.464	0.528	0.449	0.506	0.521	0.435																																																																																				
481	0.502	0.513	0.430	0.394	0.436	0.497	0.467	0.531	0.451	0.508	0.524	0.438																																																																																				
482	0.505	0.516	0.432	0.396	0.439	0.500	0.469	0.534	0.454	0.511	0.527	0.440																																																																																				
483	0.507	0.518	0.433	0.398	0.440	0.502	0.471	0.536	0.456	0.513	0.529	0.442																																																																																				
484	0.509	0.521	0.435	0.399	0.442	0.504	0.473	0.539	0.458	0.516	0.531	0.444																																																																																				
485	0.512	0.523	0.437	0.401	0.444	0.506	0.475	0.541	0.460	0.518	0.533	0.446																																																																																				
486	0.515	0.526	0.439	0.403	0.447	0.509	0.478	0.544	0.462	0.521	0.536	0.449																																																																																				
487	0.519	0.531	0.442	0.406	0.450	0.513	0.482	0.548	0.466	0.525	0.540	0.452																																																																																				
488	0.523	0.534	0.445	0.409	0.453	0.516	0.485	0.552	0.469	0.529	0.544	0.455																																																																																				
489	0.527	0.538	0.447	0.411	0.455	0.520	0.488	0.555	0.472	0.532	0.547	0.457																																																																																				
490	0.531	0.543	0.451	0.414	0.459	0.524	0.492	0.560	0.476	0.536	0.551	0.461																																																																																				
491	0.537	0.549	0.455	0.418	0.463	0.528	0.496	0.565	0.480	0.541	0.556	0.465																																																																																				
492	0.541	0.553	0.458	0.421	0.466	0.532	0.499	0.569	0.483	0.545	0.560	0.468																																																																																				
493	0.546	0.558	0.461	0.424	0.470	0.536	0.503	0.574	0.487	0.549	0.564	0.472																																																																																				
494	0.551	0.563	0.465	0.427	0.474	0.541	0.508	0.578	0.491	0.554	0.569	0.476																																																																																				
495	0.558	0.571	0.469	0.432	0.479	0.547	0.513	0.585	0.497	0.560	0.575	0.481																																																																																				
496	0.565	0.578	0.474	0.436	0.483	0.552	0.518	0.591	0.502	0.566	0.581	0.486																																																																																				
497	0.572	0.585	0.478	0.441	0.488	0.558	0.524	0.598	0.507	0.572	0.587	0.491																																																																																				
498	0.577	0.590	0.482	0.444	0.492	0.562	0.528	0.602	0.511	0.576	0.592	0.494																																																																																				
499	0.583	0.596	0.485	0.447	0.496	0.567	0.532	0.607	0.515	0.581	0.596	0.498																																																																																				
500	0.589	0.603	0.489	0.451	0.500	0.572	0.536	0.612	0.519	0.586	0.601	0.503																																																																																				
501	0.595	0.609	0.493	0.455	0.504	0.577	0.541	0.618	0.524	0.592	0.607	0.507																																																																																				
502	0.602	0.616	0.497	0.459	0.509	0.582	0.546	0.623	0.529	0.597	0.612	0.512																																																																																				
503	0.608	0.623	0.501	0.462	0.513	0.587	0.550	0.628	0.533	0.602	0.617	0.516																																																																																				
504	0.615	0.630	0.505	0.466	0.517	0.592	0.555	0.634	0.538	0.607	0.622	0.520																																																																																				
505	0.620	0.636	0.508	0.469	0.521	0.596	0.559	0.639	0.542	0.612	0.627	0.524																																																																																				
506	0.626	0.642	0.512	0.473	0.525	0.601	0.563	0.644	0.546	0.616	0.631	0.528																																																																																				
507	0.631	0.648	0.514	0.475	0.528	0.604	0.567	0.648	0.549	0.621	0.636	0.532																																																																																				
508	0.637	0.653	0.517	0.478	0.531	0.608	0.570	0.652	0.553	0.625	0.640	0.535																																																																																				
509	0.641	0.658	0.520	0.481	0.534	0.612	0.573	0.656	0.556	0.628	0.643	0.538																																																																																				
510	0.646	0.664	0.522	0.483	0.537	0.615	0.577	0.659	0.559	0.632	0.647	0.541																																																																																				
511	0.649	0.667	0.524	0.485	0.539	0.617	0.579	0.662	0.562	0.635	0.650	0.544																																																																																				
512	0.653	0.671	0.525	0.487	0.541	0.620	0.581	0.665	0.564	0.637	0.653	0.546																																																																																				
513	0.655	0.674	0.526	0.488	0.542	0.621	0.583	0.667	0.566	0.639	0.655	0.548																																																																																				
514	0.657	0.676	0.527	0.489	0.543	0.623	0.584	0.669	0.567	0.641	0.656	0.549																																																																																				
515	0.659	0.678	0.527	0.489	0.544	0.624	0.585	0.670	0.568	0.642	0.658	0.550																																																																																				
516	0.660	0.679	0.527	0.490	0.544	0.625	0.586	0.671	0.569	0.643	0.659	0.551																																																																																				
517	0.660	0.680	0.527	0.490	0.544	0.625	0.586	0.672	0.570	0.644	0.659	0.552																																																																																				
518	0.660	0.680	0.526	0.489	0.544	0.625	0.586	0.672	0.570	0.644	0.660	0.552																																																																																				
519	0.659	0.679	0.525	0.489	0.544	0.625	0.586	0.672	0.570	0.644	0.660	0.552																																																																																				
520	0.658	0.678	0.524	0.488	0.543	0.624	0.585	0.671	0.569	0.644	0.659	0.552																																																																																				
521	0.657	0.677	0.523	0.487	0.543	0.623	0.585	0.670	0.569	0.644	0.659	0.551																																																																																				
522	0.655	0.675	0.521	0.486	0.541	0.622	0.583	0.669	0.568	0.642	0.658	0.551																																																																																				
523	0.652	0.673	0.519	0.485	0.539	0.620	0.582	0.667	0.566	0.641	0.656	0.550																																																																																				
524	0.649	0.670	0.517	0.483	0.537	0.618	0.580	0.665	0.565	0.639	0.655	0.548																																																																																				
525	0.646	0.667	0.514	0.481	0.535	0.616	0.578	0.663	0.563	0.637	0.653	0.546																																																																																				
526	0.642	0.663	0.512	0.478	0.533	0.613	0.575	0.660	0.561	0.635	0.650	0.544																																																																																				
527	0.638	0.659	0.508	0.476	0.530	0.610	0.573	0.657	0.558	0.632	0.648	0.542																																																																																				
528	0.635	0.656	0.506	0.474	0.528	0.607	0.570	0.655	0.556	0.629	0.645	0.540																																																																																				
529	0.632	0.653	0.503	0.472	0.526	0.605	0.568	0.652	0.554	0.627	0.643	0.538																																																																																				
530	0.628	0.650	0.501	0.470	0.523	0.602	0.566	0.649	0.551	0.624	0.640	0.536																																																																																				
531	0.624	0.645	0.497	0.467	0.520	0.599	0.562	0.646	0.548	0.621	0.637	0.534																																																																																				
532	0.619	0.640	0.493	0.463	0.516	0.594	0.558	0.641	0.544	0.617	0.633	0.530																																																																																				
533	0.614	0.636	0.489	0.460	0.512	0.590	0.554	0.636	0.541	0.613	0.629	0.527																																																																																				
534	0.610	0.632	0.485	0.456	0.509	0.586	0.551	0.632	0.538	0.609	0.625	0.523																																																																																				
535	0.606	0.627	0.481	0.453	0.505	0.582	0.547	0.628	0.534	0.605	0.620	0.520																																																																																				
536	0.601	0.623	0.477	0.449	0.501	0.577	0.542	0.623	0.529	0.600	0.616	0.516																																																																																				
537	0.596	0.618	0.472	0.445	0.496	0.572	0.537	0.618	0.525	0.595	0.611	0.512																																																																																				
538	0.592	0.614	0.467	0.441	0.492	0.567	0.533	0.612	0.521	0.590	0.606	0.508																																																																																				
539	0.588	0.609	0.463	0.437	0.487	0.561	0.528	0.606	0.516	0.585	0.601	0.504																																																																																				
540	0.583	0.605	0.458	0.432	0.482	0.555	0.522	0.600	0.511	0.579	0.595	0.499																																																																																				
541	0.579	0.601	0.453	0.428	0.478	0.550	0.518	0.595	0.506	0.574	0.590	0.495																																																																																				
542	0.575	0.597	0.449	0.424	0.473	0.545	0.513	0.589	0.502	0.569	0.585	0.491																																																																																				
543	0.572	0.594	0.445	0.420	0.469	0.541	0.509	0.584	0.498	0.564	0.580	0.487																																																																																				
544	0.569	0.591	0.440	0.416	0.464	0.535	0.503	0.578	0.492	0.558	0.574	0.482																																																																																				
545	0.565	0.587	0.434	0.410	0.458	0.528	0.497	0.571	0.487	0.551	0.568	0.476																																																																																				
546	0.562	0.584	0.428	0.405	0.453	0.522	0.491	0.564	0.481	0.545	0.561	0.471																																																																																				
547	0.559	0.581	0.423	0.401	0.447	0.515	0.485	0.557	0.475	0.539	0.555	0.466																																																																																				
548	0.556	0.578	0.418	0.396	0.442	0.509	0.480	0.550	0.470	0.532	0.549	0.461																																																																																				
549	0.553	0.576	0.413	0.391	0.437	0.503	0.474	0.544	0.465	0.526	0.543	0.456																																																																																				
550	0.551	0.574	0.407	0.386	0.430	0.496	0.468	0.536	0.458	0.519	0.535	0.450																																																																																				
551	0.549	0.572	0.402	0.381	0.425	0.490	0.462	0.529	0.453	0.512	0.529	0.444																																																																																				
552	0.547	0.570	0.396	0.375	0.419	0.483	0.455	0.521	0.446	0.505	0.521	0.438																																																																																				
553	0.545	0.569	0.390	0.370	0.413	0.476	0.449	0.514	0.440	0.498	0.514	0.432																																																																																				
554	0.544	0.567	0.385	0.364	0.407	0.469	0.442	0.506	0.433	0.491	0.507	0.426																																																																																				
555	0.543	0.567	0.380	0.360	0.402	0.463	0.436	0.500	0.428	0.484	0.500	0.421																																																																																				
556	0.542	0.566	0.373	0.354	0.395	0.455	0.429	0.491	0.421	0.476	0.493	0.414																																																																																				
557	0.541	0.566	0.368	0.349	0.389	0.448	0.423	0.484	0.415	0.469	0.486	0.408																																																																																				
558	0.541	0.566	0.362	0.343	0.383	0.440	0.416	0.475	0.408	0.461	0.478	0.402																																																																																				
559	0.541	0.566	0.356	0.337	0.376	0.433	0.409	0.467	0.401	0.453	0.469	0.395																																																																																				
560	0.542	0.566	0.350	0.331	0.370	0.425	0.401	0.459	0.393	0.445	0.461	0.388																																																																																				
561	0.542	0.567	0.345	0.326	0.364	0.418	0.395	0.451	0.387	0.438	0.454	0.382																																																																																				
562	0.543	0.569	0.340	0.321	0.358	0.411	0.389	0.444	0.381	0.431	0.447	0.376																																																																																				
563	0.544	0.570	0.336	0.317	0.353	0.406	0.384	0.438	0.376	0.425	0.441	0.371																																																																																				
564	0.546	0.571	0.330	0.312	0.348	0.400	0.377	0.430	0.370	0.418	0.434	0.365																																																																																				
565	0.548	0.574	0.324	0.306	0.341	0.392	0.370	0.422	0.363	0.409	0.426	0.358																																																																																				
566	0.550	0.576	0.320	0.301	0.336	0.385	0.364	0.415	0.357	0.402	0.419	0.352																																																																																				
567	0.552	0.579	0.315	0.297	0.331	0.379	0.358	0.407	0.351	0.396	0.412	0.347																																																																																				
568	0.555	0.581	0.310	0.292	0.325	0.373	0.352	0.401	0.345	0.389	0.405	0.341																																																																																				
569	0.558	0.585	0.306	0.287	0.320	0.367	0.346	0.394	0.339	0.382	0.398	0.335																																																																																				
570	0.561	0.588	0.301	0.283	0.315	0.360	0.341	0.387	0.333	0.376	0.392	0.330																																																																																				
571	0.565	0.592	0.296	0.278	0.309	0.354	0.334	0.379	0.327	0.369	0.384	0.324																																																																																				
572	0.569	0.597	0.292	0.273	0.304	0.348	0.328	0.372	0.321	0.362	0.378	0.318																																																																																				
573	0.573	0.601	0.288	0.269	0.299	0.342	0.323	0.366	0.316	0.356	0.372	0.313																																																																																				
574	0.578	0.605	0.284	0.265	0.295	0.337	0.318	0.360	0.311	0.350	0.366	0.308																																																																																				
575	0.582	0.610	0.279	0.261	0.290	0.331	0.313	0.354	0.305	0.344	0.359	0.302																																																																																				
576	0.587	0.615	0.276	0.257	0.286	0.326	0.308	0.348	0.301	0.338	0.354	0.298																																																																																				
577	0.592	0.620	0.272	0.254	0.282	0.321	0.303	0.343	0.296	0.333	0.348	0.293																																																																																				
578	0.598	0.626	0.268	0.249	0.277	0.316	0.298	0.337	0.291	0.327	0.342	0.288																																																																																				
579	0.604	0.632	0.265	0.246	0.273	0.310	0.293	0.331	0.286	0.321	0.337	0.283																																																																																				
580	0.611	0.639	0.261	0.242	0.268	0.305	0.288	0.325	0.281	0.315	0.331	0.278																																																																																				
581	0.617	0.645	0.257	0.238	0.264	0.300	0.284	0.319	0.277	0.310	0.325	0.274																																																																																				
582	0.624	0.652	0.254	0.235	0.261	0.296	0.279	0.314	0.272	0.305	0.320	0.270																																																																																				
583	0.631	0.659	0.251	0.231	0.257	0.291	0.275	0.309	0.268	0.299	0.315	0.265																																																																																				
584	0.639	0.667	0.247	0.228	0.253	0.286	0.270	0.303	0.263	0.294	0.310	0.261																																																																																				
585	0.648	0.675	0.244	0.225	0.249	0.282	0.266	0.298	0.259	0.289	0.305	0.256																																																																																				
586	0.656	0.684	0.241	0.222	0.245	0.277	0.262	0.293	0.255	0.285	0.300	0.252																																																																																				
587	0.665	0.693	0.238	0.218	0.241	0.273	0.258	0.288	0.251	0.280	0.295	0.248																																																																																				
588	0.673	0.701	0.235	0.216	0.238	0.269	0.254	0.284	0.247	0.276	0.291	0.244																																																																																				
589	0.682	0.709	0.233	0.213	0.235	0.265	0.251	0.280	0.243	0.271	0.286	0.241																																																																																				
590	0.691	0.718	0.230	0.210	0.232	0.262	0.247	0.276	0.240	0.267	0.282	0.237																																																																																				
591	0.701	0.728	0.228	0.207	0.229	0.258	0.243	0.271	0.236	0.263	0.278	0.234																																																																																				
592	0.709	0.736	0.225	0.205	0.226	0.255	0.240	0.268	0.233	0.259	0.275	0.231																																																																																				
593	0.719	0.745	0.223	0.203	0.224	0.251	0.237	0.264	0.230	0.256	0.271	0.228																																																																																				
594	0.729	0.755	0.220	0.200	0.221	0.248	0.234	0.260	0.227	0.252	0.266	0.224																																																																																				
595	0.740	0.766	0.218	0.198	0.218	0.244	0.231	0.256	0.223	0.248	0.263	0.221																																																																																				
596	0.750	0.775	0.216	0.195	0.215	0.241	0.228	0.252	0.220	0.245	0.259	0.218																																																																																				
597	0.760	0.784	0.214	0.193	0.213	0.238	0.225	0.249	0.218	0.241	0.256	0.215																																																																																				
598	0.770	0.794	0.212	0.191	0.210	0.235	0.222	0.246	0.215	0.238	0.253	0.213																																																																																				
599	0.781	0.804	0.210	0.189	0.208	0.233	0.220	0.243	0.212	0.235	0.250	0.210																																																																																				
600	0.793	0.815	0.208	0.187	0.205	0.230	0.217	0.239	0.209	0.232	0.246	0.207																																																																																				
601	0.806	0.828	0.206	0.185	0.203	0.227	0.214	0.236	0.206	0.228	0.243	0.204																																																																																				
602	0.818	0.839	0.204	0.183	0.201	0.224	0.211	0.233	0.203	0.225	0.240	0.202																																																																																				
603	0.829	0.849	0.202	0.181	0.199	0.221	0.209	0.230	0.201	0.223	0.237	0.199																																																																																				
604	0.840	0.859	0.201	0.179	0.196	0.219	0.206	0.227	0.199	0.220	0.234	0.197																																																																																				
605	0.851	0.869	0.199	0.177	0.195	0.216	0.204	0.225	0.197	0.217	0.232	0.195																																																																																				
606	0.862	0.879	0.198	0.176	0.193	0.214	0.202	0.222	0.195	0.215	0.229	0.193																																																																																				
607	0.873	0.888	0.196	0.174	0.191	0.212	0.200	0.220	0.193	0.212	0.227	0.191																																																																																				
608	0.886	0.900	0.195	0.172	0.189	0.209	0.198	0.217	0.190	0.210	0.224	0.188																																																																																				
609	0.898	0.910	0.193	0.171	0.187	0.207	0.196	0.214	0.188	0.207	0.221	0.186																																																																																				
610	0.908	0.919	0.192	0.170	0.186	0.205	0.194	0.212	0.186	0.205	0.220	0.185																																																																																				
611	0.918	0.928	0.191	0.168	0.184	0.204	0.193	0.210	0.185	0.203	0.217	0.183																																																																																				
612	0.930	0.938	0.190	0.167	0.183	0.202	0.190	0.208	0.183	0.201	0.215	0.181																																																																																				
613	0.941	0.948	0.189	0.166	0.181	0.200	0.189	0.206	0.181	0.199	0.213	0.179																																																																																				
614	0.953	0.958	0.187	0.164	0.180	0.198	0.187	0.204	0.179	0.197	0.211	0.177																																																																																				
615	0.964	0.967	0.186	0.163	0.178	0.196	0.185	0.202	0.178	0.195	0.209	0.176																																																																																				
616	0.975	0.976	0.185	0.162	0.177	0.195	0.183	0.200	0.176	0.193	0.207	0.174																																																																																				
617	0.986	0.984	0.184	0.161	0.175	0.193	0.182	0.198	0.174	0.191	0.205	0.172																																																																																				
618	0.996	0.992	0.183	0.160	0.174	0.192	0.181	0.196	0.173	0.189	0.203	0.171																																																																																				
619	1.005	0.999	0.182	0.159	0.173	0.190	0.179	0.195	0.171	0.188	0.202	0.169																																																																																				
620	1.016	1.008	0.182	0.158	0.172	0.188	0.178	0.193	0.170	0.186	0.200	0.168																																																																																				
621	1.026	1.015	0.181	0.157	0.171	0.187	0.176	0.191	0.168	0.184	0.198	0.166																																																																																				
622	1.034	1.021	0.180	0.156	0.170	0.186	0.175	0.190	0.167	0.183	0.196	0.165																																																																																				
623	1.043	1.027	0.179	0.155	0.168	0.184	0.174	0.188	0.166	0.181	0.195	0.164																																																																																				
624	1.051	1.033	0.179	0.154	0.167	0.183	0.173	0.186	0.165	0.180	0.193	0.162																																																																																				
625	1.058	1.038	0.178	0.153	0.167	0.182	0.172	0.185	0.163	0.178	0.192	0.161																																																																																				
626	1.064	1.042	0.178	0.152	0.166	0.181	0.171	0.184	0.162	0.177	0.191	0.160																																																																																				
627	1.071	1.046	0.177	0.152	0.165	0.180	0.170	0.183	0.161	0.176	0.190	0.159																																																																																				
628	1.076	1.050	0.177	0.151	0.164	0.179	0.169	0.181	0.160	0.175	0.188	0.158																																																																																				
629	1.081	1.052	0.176	0.150	0.163	0.178	0.168	0.180	0.159	0.173	0.187	0.157																																																																																				
630	1.085	1.055	0.176	0.150	0.163	0.177	0.167	0.179	0.158	0.172	0.186	0.156																																																																																				
631	1.088	1.056	0.176	0.149	0.162	0.176	0.166	0.178	0.157	0.171	0.185	0.155																																																																																				
632	1.091	1.058	0.176	0.149	0.161	0.175	0.165	0.177	0.156	0.170	0.183	0.154																																																																																				
633	1.094	1.059	0.175	0.148	0.161	0.174	0.164	0.176	0.156	0.169	0.183	0.153																																																																																				
634	1.096	1.059	0.175	0.148	0.160	0.174	0.164	0.175	0.155	0.168	0.182	0.152																																																																																				
635	1.097	1.059	0.175	0.147	0.160	0.173	0.163	0.174	0.154	0.167	0.180	0.151																																																																																				
636	1.097	1.058	0.175	0.147	0.159	0.172	0.162	0.174	0.153	0.166	0.180	0.150																																																																																				
637	1.097	1.057	0.175	0.147	0.159	0.172	0.161	0.173	0.153	0.166	0.179	0.150																																																																																				
638	1.096	1.055	0.175	0.146	0.158	0.171	0.161	0.172	0.152	0.165	0.178	0.149																																																																																				
639	1.094	1.053	0.175	0.146	0.158	0.170	0.160	0.171	0.151	0.164	0.177	0.148																																																																																				
640	1.092	1.050	0.175	0.146	0.157	0.170	0.160	0.171	0.150	0.163	0.176	0.148																																																																																				
641	1.089	1.047	0.175	0.145	0.157	0.169	0.159	0.170	0.150	0.162	0.176	0.147																																																																																				
642	1.086	1.044	0.175	0.145	0.157	0.169	0.159	0.169	0.149	0.162	0.175	0.146																																																																																				
643	1.082	1.040	0.175	0.145	0.157	0.168	0.158	0.169	0.149	0.161	0.174	0.146																																																																																				
644	1.078	1.036	0.176	0.145	0.156	0.168	0.158	0.168	0.148	0.160	0.173	0.145																																																																																				
645	1.073	1.031	0.176	0.145	0.156	0.168	0.157	0.168	0.148	0.160	0.173	0.144																																																																																				
646	1.067	1.026	0.176	0.145	0.156	0.167	0.157	0.167	0.147	0.159	0.172	0.144																																																																																				
647	1.061	1.020	0.177	0.145	0.156	0.167	0.157	0.167	0.147	0.159	0.172	0.143																																																																																				
648	1.055	1.014	0.177	0.145	0.156	0.167	0.156	0.166	0.147	0.158	0.171	0.143																																																																																				
649	1.048	1.008	0.177	0.144	0.155	0.166	0.156	0.166	0.146	0.158	0.171	0.142																																																																																				
650	1.041	1.002	0.178	0.145	0.155	0.166	0.156	0.165	0.146	0.157	0.170	0.142																																																																																				
651	1.033	0.996	0.178	0.145	0.155	0.166	0.155	0.165	0.145	0.157	0.170	0.141																																																																																				
652	1.026	0.989	0.179	0.145	0.155	0.166	0.155	0.165	0.145	0.157	0.169	0.141																																																																																				
653	1.018	0.982	0.180	0.145	0.155	0.166	0.155	0.164	0.145	0.156	0.169	0.141																																																																																				
654	1.010	0.975	0.180	0.145	0.156	0.166	0.155	0.164	0.145	0.156	0.168	0.141																																																																																				
655	1.001	0.968	0.181	0.145	0.156	0.166	0.155	0.164	0.145	0.155	0.168	0.140																																																																																				
656	0.992	0.959	0.182	0.145	0.156	0.166	0.155	0.164	0.144	0.155	0.168	0.140																																																																																				
657	0.982	0.951	0.183	0.146	0.156	0.166	0.155	0.164	0.144	0.155	0.167	0.140																																																																																				
658	0.973	0.943	0.184	0.146	0.156	0.166	0.155	0.164	0.144	0.155	0.167	0.139																																																																																				
659	0.963	0.934	0.185	0.146	0.157	0.166	0.155	0.164	0.144	0.154	0.167	0.139																																																																																				
660	0.954	0.927	0.186	0.147	0.157	0.166	0.155	0.164	0.144	0.154	0.167	0.139																																																																																				
661	0.943	0.917	0.187	0.147	0.157	0.166	0.155	0.164	0.144	0.154	0.167	0.139																																																																																				
662	0.933	0.908	0.188	0.147	0.157	0.166	0.155	0.164	0.144	0.154	0.166	0.139																																																																																				
663	0.923	0.899	0.189	0.148	0.158	0.167	0.155	0.164	0.144	0.154	0.166	0.138																																																																																				
664	0.913	0.890	0.190	0.148	0.158	0.167	0.155	0.164	0.144	0.154	0.166	0.138																																																																																				
665	0.902	0.881	0.192	0.149	0.159	0.167	0.155	0.164	0.144	0.154	0.166	0.138																																																																																				
666	0.892	0.872	0.193	0.149	0.159	0.168	0.156	0.164	0.144	0.154	0.166	0.138																																																																																				
667	0.880	0.861	0.194	0.150	0.160	0.168	0.156	0.164	0.144	0.154	0.166	0.138																																																																																				
668	0.869	0.851	0.196	0.151	0.160	0.169	0.156	0.165	0.144	0.154	0.166	0.138																																																																																				
669	0.858	0.841	0.198	0.151	0.161	0.169	0.157	0.165	0.144	0.154	0.166	0.138																																																																																				
670	0.846	0.830	0.199	0.152	0.162	0.169	0.157	0.165	0.144	0.154	0.166	0.138																																																																																				
671	0.835	0.820	0.201	0.153	0.162	0.170	0.157	0.166	0.145	0.154	0.166	0.138																																																																																				
672	0.824	0.810	0.203	0.154	0.163	0.170	0.158	0.166	0.145	0.154	0.166	0.138																																																																																				
673	0.813	0.799	0.205	0.154	0.164	0.171	0.158	0.166	0.145	0.155	0.166	0.138																																																																																				
674	0.800	0.788	0.207	0.155	0.164	0.172	0.159	0.167	0.145	0.155	0.166	0.138																																																																																				
675	0.789	0.777	0.209	0.156	0.165	0.172	0.159	0.167	0.146	0.155	0.167	0.138																																																																																				
676	0.777	0.765	0.211	0.157	0.166	0.173	0.160	0.168	0.146	0.155	0.167	0.138																																																																																				
677	0.766	0.755	0.214	0.159	0.167	0.174	0.161	0.168	0.146	0.156	0.167	0.138																																																																																				
678	0.755	0.744	0.216	0.160	0.168	0.175	0.161	0.169	0.147	0.156	0.167	0.138																																																																																				
679	0.743	0.733	0.218	0.161	0.169	0.175	0.162	0.169	0.147	0.156	0.168	0.139																																																																																				
680	0.731	0.722	0.221	0.162	0.170	0.176	0.163	0.170	0.148	0.157	0.168	0.139																																																																																				
681	0.720	0.711	0.224	0.163	0.172	0.177	0.163	0.171	0.148	0.157	0.168	0.139																																																																																				
682	0.708	0.700	0.227	0.165	0.173	0.178	0.164	0.172	0.149	0.158	0.169	0.139																																																																																				
683	0.697	0.690	0.230	0.166	0.174	0.179	0.165	0.172	0.149	0.158	0.169	0.140																																																																																				
684	0.686	0.679	0.232	0.167	0.175	0.181	0.166	0.173	0.150	0.159	0.170	0.140																																																																																				
685	0.675	0.668	0.236	0.169	0.177	0.182	0.167	0.174	0.151	0.160	0.170	0.140																																																																																				
686	0.663	0.656	0.239	0.171	0.178	0.183	0.168	0.175	0.151	0.160	0.171	0.141																																																																																				
687	0.651	0.645	0.243	0.172	0.180	0.185	0.169	0.176	0.152	0.161	0.172	0.141																																																																																				
688	0.640	0.634	0.247	0.174	0.182	0.186	0.170	0.177	0.153	0.162	0.172	0.141																																																																																				
689	0.629	0.624	0.250	0.176	0.183	0.188	0.172	0.179	0.154	0.162	0.173	0.142																																																																																				
690	0.619	0.614	0.254	0.178	0.185	0.189	0.173	0.180	0.155	0.163	0.173	0.142																																																																																				
691	0.609	0.605	0.258	0.180	0.187	0.190	0.174	0.181	0.156	0.164	0.174	0.143																																																																																				
692	0.599	0.595	0.262	0.182	0.189	0.192	0.175	0.182	0.157	0.165	0.175	0.144																																																																																				
693	0.588	0.585	0.267	0.184	0.191	0.194	0.177	0.184	0.158	0.166	0.176	0.144																																																																																				
694	0.578	0.575	0.271	0.186	0.193	0.196	0.178	0.185	0.159	0.167	0.177	0.145																																																																																				
695	0.568	0.566	0.276	0.189	0.195	0.198	0.180	0.187	0.160	0.168	0.177	0.145																																																																																				
696	0.558	0.556	0.281	0.191	0.198	0.200	0.181	0.188	0.161	0.169	0.178	0.146																																																																																				
697	0.548	0.547	0.286	0.194	0.200	0.202	0.183	0.190	0.162	0.170	0.180	0.147																																																																																				
698	0.539	0.538	0.291	0.196	0.202	0.204	0.185	0.192	0.163	0.171	0.180	0.147																																																																																				
699	0.531	0.530	0.296	0.199	0.205	0.206	0.187	0.193	0.165	0.172	0.182	0.148																																																																																				
700	0.523	0.522	0.301	0.202	0.207	0.208	0.188	0.195	0.166	0.174	0.182	0.149																																																																																				
701	0.514	0.514	0.307	0.204	0.210	0.210	0.191	0.197	0.167	0.175	0.184	0.149																																																																																				
702	0.505	0.506	0.313	0.208	0.213	0.213	0.193	0.199	0.169	0.176	0.185	0.151																																																																																				
703	0.496	0.497	0.319	0.211	0.216	0.216	0.195	0.201	0.171	0.178	0.186	0.152																																																																																				
704	0.489	0.490	0.326	0.214	0.219	0.219	0.197	0.203	0.172	0.179	0.188	0.153																																																																																				
705	0.480	0.482	0.332	0.217	0.223	0.222	0.200	0.206	0.174	0.181	0.189	0.154																																																																																				
706	0.473	0.474	0.338	0.221	0.226	0.224	0.202	0.208	0.175	0.183	0.190	0.155																																																																																				
707	0.465	0.467	0.345	0.224	0.229	0.227	0.204	0.210	0.177	0.184	0.192	0.156																																																																																				
708	0.458	0.460	0.352	0.228	0.233	0.231	0.207	0.212	0.179	0.186	0.194	0.157																																																																																				
709	0.450	0.452	0.360	0.232	0.237	0.234	0.210	0.215	0.181	0.188	0.195	0.159																																																																																				
710	0.443	0.446	0.366	0.236	0.241	0.238	0.213	0.218	0.183	0.190	0.197	0.160																																																																																				
711	0.436	0.439	0.374	0.240	0.245	0.241	0.216	0.221	0.185	0.192	0.199	0.161																																																																																				
712	0.430	0.433	0.381	0.244	0.248	0.244	0.218	0.224	0.188	0.194	0.201	0.163																																																																																				
713	0.423	0.426	0.390	0.249	0.253	0.248	0.222	0.227	0.190	0.196	0.203	0.165																																																																																				
714	0.416	0.420	0.398	0.253	0.257	0.252	0.225	0.230	0.192	0.199	0.205	0.166																																																																																				
715	0.409	0.413	0.407	0.258	0.262	0.256	0.228	0.233	0.195	0.201	0.207	0.168																																																																																				
716	0.403	0.407	0.415	0.263	0.266	0.260	0.232	0.236	0.197	0.203	0.209	0.169																																																																																				
717	0.397	0.401	0.423	0.267	0.271	0.264	0.235	0.240	0.200	0.206	0.211	0.171																																																																																				
718	0.391	0.396	0.432	0.272	0.275	0.269	0.238	0.243	0.202	0.208	0.214	0.172																																																																																				
719	0.385	0.390	0.441	0.277	0.281	0.273	0.242	0.247	0.205	0.211	0.216	0.174																																																																																				
720	0.380	0.385	0.450	0.282	0.285	0.277	0.246	0.250	0.207	0.213	0.218	0.175																																																																																				
721	0.373	0.379	0.459	0.288	0.291	0.282	0.250	0.254	0.210	0.216	0.221	0.177																																																																																				
722	0.367	0.373	0.469	0.294	0.296	0.287	0.254	0.258	0.213	0.219	0.224	0.179																																																																																				
723	0.362	0.367	0.479	0.300	0.302	0.292	0.258	0.263	0.217	0.222	0.226	0.181																																																																																				
724	0.357	0.362	0.489	0.305	0.307	0.297	0.262	0.267	0.220	0.225	0.229	0.183																																																																																				
725	0.351	0.357	0.499	0.311	0.314	0.303	0.267	0.271	0.223	0.228	0.232	0.185																																																																																				
726	0.346	0.351	0.509	0.317	0.319	0.308	0.271	0.275	0.226	0.231	0.235	0.187																																																																																				
727	0.341	0.347	0.520	0.324	0.326	0.314	0.276	0.281	0.230	0.235	0.238	0.189																																																																																				
728	0.336	0.342	0.531	0.331	0.333	0.320	0.281	0.286	0.234	0.238	0.241	0.191																																																																																				
729	0.331	0.337	0.543	0.338	0.340	0.327	0.287	0.291	0.238	0.242	0.244	0.194																																																																																				
730	0.326	0.332	0.553	0.345	0.346	0.333	0.292	0.296	0.241	0.246	0.248	0.196																																																																																				
731	0.322	0.328	0.565	0.352	0.353	0.339	0.297	0.301	0.245	0.250	0.251	0.199																																																																																				
732	0.318	0.324	0.576	0.359	0.360	0.346	0.303	0.307	0.249	0.254	0.255	0.201																																																																																				
733	0.313	0.319	0.588	0.366	0.367	0.352	0.309	0.313	0.254	0.258	0.259	0.204																																																																																				
734	0.309	0.315	0.598	0.373	0.374	0.359	0.314	0.318	0.258	0.262	0.262	0.206																																																																																				
735	0.305	0.310	0.610	0.381	0.382	0.366	0.320	0.324	0.262	0.266	0.266	0.209																																																																																				
736	0.300	0.306	0.622	0.389	0.390	0.373	0.326	0.330	0.267	0.271	0.270	0.212																																																																																				
737	0.296	0.302	0.634	0.397	0.398	0.381	0.332	0.337	0.271	0.275	0.274	0.215																																																																																				
738	0.292	0.298	0.646	0.405	0.406	0.388	0.339	0.343	0.276	0.280	0.278	0.218																																																																																				
739	0.288	0.294	0.658	0.413	0.414	0.396	0.345	0.349	0.281	0.284	0.282	0.221																																																																																				
740	0.284	0.290	0.670	0.421	0.422	0.403	0.351	0.356	0.286	0.289	0.286	0.224																																																																																				
741	0.280	0.286	0.682	0.429	0.430	0.411	0.358	0.362	0.290	0.294	0.290	0.227																																																																																				
742	0.276	0.282	0.695	0.438	0.439	0.419	0.365	0.369	0.296	0.299	0.295	0.230																																																																																				
743	0.272	0.278	0.707	0.447	0.447	0.427	0.372	0.376	0.301	0.304	0.299	0.234																																																																																				
744	0.269	0.275	0.720	0.456	0.456	0.436	0.379	0.383	0.306	0.309	0.304	0.237																																																																																				
745	0.265	0.271	0.733	0.465	0.466	0.445	0.387	0.391	0.312	0.314	0.309	0.240																																																																																				
746	0.261	0.267	0.745	0.474	0.475	0.453	0.394	0.398	0.317	0.320	0.314	0.244																																																																																				
747	0.258	0.263	0.758	0.483	0.484	0.463	0.402	0.406	0.323	0.326	0.319	0.248																																																																																				
748	0.254	0.260	0.771	0.492	0.493	0.471	0.409	0.414	0.329	0.331	0.324	0.251																																																																																				
749	0.251	0.256	0.784	0.502	0.504	0.481	0.417	0.422	0.335	0.337	0.330	0.255																																																																																				
750	0.247	0.253	0.797	0.512	0.513	0.491	0.426	0.430	0.342	0.344	0.335	0.259																																																																																				
751	0.244	0.250	0.809	0.521	0.523	0.500	0.433	0.438	0.347	0.349	0.340	0.263																																																																																				
752	0.241	0.247	0.821	0.530	0.532	0.509	0.441	0.446	0.353	0.355	0.346	0.267																																																																																				
753	0.238	0.244	0.834	0.540	0.542	0.519	0.450	0.455	0.360	0.361	0.351	0.271																																																																																				
754	0.235	0.241	0.847	0.550	0.552	0.529	0.458	0.463	0.366	0.368	0.357	0.275																																																																																				
755	0.232	0.238	0.859	0.559	0.562	0.539	0.467	0.472	0.373	0.374	0.363	0.279																																																																																				
756	0.229	0.235	0.872	0.570	0.573	0.549	0.476	0.481	0.380	0.381	0.369	0.284																																																																																				
757	0.226	0.232	0.884	0.580	0.583	0.559	0.484	0.490	0.387	0.388	0.375	0.288																																																																																				
758	0.223	0.228	0.899	0.592	0.596	0.572	0.495	0.501	0.395	0.396	0.383	0.294																																																																																				
759	0.220	0.226	0.912	0.602	0.606	0.583	0.504	0.511	0.402	0.404	0.389	0.298																																																																																				
760	0.218	0.223	0.925	0.613	0.618	0.594	0.514	0.521	0.410	0.411	0.396	0.304																																																																																				
761	0.215	0.220	0.939	0.624	0.630	0.607	0.525	0.532	0.418	0.420	0.404	0.309																																																																																				
762	0.212	0.217	0.952	0.636	0.642	0.619	0.536	0.543	0.427	0.428	0.411	0.315																																																																																				
763	0.209	0.214	0.964	0.646	0.653	0.630	0.545	0.553	0.434	0.435	0.418	0.320																																																																																				
764	0.207	0.212	0.975	0.655	0.662	0.639	0.554	0.562	0.441	0.442	0.424	0.324																																																																																				
765	0.205	0.210	0.984	0.664	0.671	0.648	0.561	0.570	0.447	0.448	0.430	0.328																																																																																				
766	0.203	0.208	0.996	0.673	0.682	0.659	0.571	0.580	0.455	0.456	0.437	0.334																																																																																				
767	0.200	0.206	1.008	0.685	0.694	0.671	0.582	0.591	0.464	0.465	0.445	0.340																																																																																				
768	0.198	0.203	1.021	0.697	0.706	0.685	0.593	0.603	0.473	0.474	0.454	0.346																																																																																				
769	0.195	0.201	1.034	0.708	0.718	0.697	0.604	0.615	0.482	0.483	0.462	0.352																																																																																				
770	0.193	0.198	1.046	0.719	0.731	0.710	0.615	0.627	0.491	0.492	0.470	0.358																																																																																				
771	0.191	0.196	1.057	0.730	0.742	0.722	0.626	0.638	0.499	0.501	0.478	0.364																																																																																				
772	0.189	0.194	1.068	0.741	0.754	0.734	0.637	0.649	0.508	0.510	0.486	0.370																																																																																				
773	0.186	0.191	1.080	0.752	0.766	0.747	0.648	0.661	0.518	0.520	0.495	0.377																																																																																				
774	0.184	0.189	1.091	0.763	0.777	0.760	0.659	0.673	0.527	0.529	0.504	0.383																																																																																				
775	0.182	0.187	1.102	0.774	0.789	0.772	0.671	0.685	0.536	0.538	0.513	0.390																																																																																				
776	0.180	0.185	1.113	0.785	0.801	0.785	0.682	0.698	0.546	0.548	0.522	0.397																																																																																				
777	0.178	0.183	1.123	0.795	0.814	0.799	0.693	0.710	0.555	0.558	0.531	0.403																																																																																				
778	0.176	0.181	1.134	0.807	0.826	0.811	0.705	0.723	0.565	0.568	0.540	0.410																																																																																				
779	0.174	0.179	1.145	0.818	0.838	0.825	0.717	0.735	0.575	0.579	0.550	0.418																																																																																				
780	0.172	0.176	1.156	0.829	0.850	0.839	0.729	0.749	0.586	0.590	0.560	0.425																																																																																				
781	0.170	0.175	1.166	0.840	0.862	0.852	0.741	0.761	0.595	0.600	0.570	0.432																																																																																				
782	0.168	0.173	1.175	0.850	0.874	0.864	0.753	0.774	0.605	0.610	0.579	0.440																																																																																				
783	0.166	0.171	1.184	0.861	0.886	0.878	0.765	0.787	0.616	0.621	0.589	0.447																																																																																				
784	0.165	0.169	1.194	0.872	0.898	0.892	0.777	0.800	0.626	0.632	0.600	0.455																																																																																				
785	0.163	0.167	1.203	0.883	0.910	0.906	0.789	0.814	0.637	0.643	0.611	0.463																																																																																				
786	0.161	0.165	1.213	0.894	0.923	0.920	0.802	0.829	0.648	0.655	0.622	0.472																																																																																				
787	0.159	0.163	1.222	0.905	0.936	0.934	0.815	0.843	0.660	0.667	0.633	0.480																																																																																				
788	0.157	0.162	1.230	0.916	0.947	0.948	0.828	0.857	0.671	0.679	0.643	0.488																																																																																				
789	0.156	0.160	1.238	0.926	0.959	0.961	0.839	0.869	0.681	0.689	0.654	0.496																																																																																				
790	0.154	0.158	1.245	0.935	0.970	0.973	0.851	0.882	0.691	0.700	0.664	0.504																																																																																				
791	0.152	0.157	1.252	0.945	0.981	0.986	0.862	0.895	0.702	0.711	0.675	0.513																																																																																				
792	0.151	0.155	1.261	0.957	0.994	1.002	0.877	0.911	0.715	0.725	0.688	0.522																																																																																				
793	0.149	0.153	1.268	0.967	1.006	1.015	0.889	0.924	0.725	0.737	0.699	0.531																																																																																				
794	0.147	0.151	1.275	0.976	1.017	1.029	0.901	0.939	0.737	0.749	0.710	0.540																																																																																				
795	0.146	0.150	1.282	0.986	1.029	1.043	0.915	0.954	0.749	0.762	0.722	0.549																																																																																				
796	0.144	0.149	1.288	0.995	1.039	1.056	0.926	0.966	0.759	0.773	0.733	0.557																																																																																				
797	0.143	0.147	1.294	1.005	1.050	1.069	0.938	0.980	0.770	0.785	0.745	0.567																																																																																				
798	0.142	0.145	1.300	1.014	1.061	1.082	0.951	0.994	0.781	0.797	0.757	0.576																																																																																				
799	0.140	0.144	1.305	1.023	1.072	1.095	0.963	1.009	0.793	0.810	0.769	0.585																																																																																				
800	0.139	0.143	1.311	1.032	1.083	1.109	0.975	1.023	0.805	0.823	0.781	0.595																																																																																				
801	0.137	0.141	1.316	1.042	1.095	1.123	0.988	1.038	0.817	0.836	0.794	0.605																																																																																				
802	0.136	0.140	1.320	1.050	1.104	1.135	1.000	1.051	0.828	0.848	0.805	0.614																																																																																				
803	0.135	0.139	1.325	1.058	1.114	1.148	1.011	1.065	0.839	0.860	0.817	0.624																																																																																				
804	0.133	0.137	1.329	1.067	1.125	1.161	1.024	1.080	0.852	0.874	0.831	0.634																																																																																				
805	0.132	0.136	1.333	1.075	1.135	1.174	1.036	1.094	0.863	0.886	0.843	0.644																																																																																				
806	0.131	0.135	1.337	1.083	1.145	1.186	1.048	1.106	0.874	0.898	0.854	0.653																																																																																				
807	0.130	0.133	1.341	1.091	1.155	1.199	1.060	1.121	0.886	0.912	0.868	0.663																																																																																				
808	0.129	0.132	1.344	1.098	1.164	1.211	1.071	1.134	0.896	0.923	0.879	0.673																																																																																				
809	0.127	0.131	1.347	1.106	1.173	1.223	1.082	1.148	0.908	0.936	0.891	0.682																																																																																				
810	0.127	0.130	1.350	1.113	1.182	1.235	1.093	1.161	0.919	0.948	0.904	0.693																																																																																				
811	0.125	0.129	1.352	1.120	1.192	1.247	1.105	1.175	0.931	0.962	0.917	0.703																																																																																				
812	0.124	0.128	1.354	1.127	1.200	1.259	1.117	1.189	0.942	0.975	0.930	0.714																																																																																				
813	0.123	0.127	1.357	1.135	1.210	1.272	1.129	1.203	0.954	0.988	0.943	0.724																																																																																				
814	0.122	0.126	1.358	1.141	1.218	1.283	1.140	1.216	0.965	1.001	0.956	0.735																																																																																				
815	0.121	0.124	1.360	1.148	1.227	1.295	1.151	1.230	0.977	1.014	0.969	0.745																																																																																				
816	0.120	0.123	1.361	1.155	1.236	1.308	1.164	1.246	0.990	1.029	0.984	0.757																																																																																				
817	0.119	0.122	1.362	1.161	1.244	1.319	1.174	1.258	1.000	1.042	0.996	0.767																																																																																				
818	0.118	0.121	1.363	1.167	1.252	1.331	1.186	1.272	1.012	1.055	1.009	0.778																																																																																				
819	0.117	0.120	1.364	1.173	1.260	1.342	1.198	1.287	1.025	1.070	1.024	0.790																																																																																				
820	0.116	0.119	1.364	1.180	1.270	1.357	1.212	1.304	1.040	1.087	1.040	0.804																																																																																				
821	0.115	0.118	1.364	1.187	1.279	1.369	1.224	1.319	1.053	1.102	1.056	0.818																																																																																				
822	0.115	0.117	1.364	1.191	1.285	1.378	1.232	1.330	1.062	1.113	1.067	0.826																																																																																				
823	0.114	0.117	1.364	1.194	1.289	1.384	1.238	1.338	1.069	1.120	1.075	0.833																																																																																				
824	0.114	0.117	1.364	1.197	1.292	1.390	1.244	1.345	1.075	1.127	1.083	0.839																																																																																				
825	0.113	0.117	1.364	1.200	1.297	1.397	1.251	1.354	1.083	1.137	1.092	0.846																																																																																				
826	0.113	0.116	1.363	1.206	1.306	1.409	1.264	1.370	1.097	1.153	1.109	0.860																																																																																				
827	0.112	0.115	1.361	1.211	1.313	1.421	1.275	1.384	1.109	1.169	1.124	0.873																																																																																				
828	0.112	0.114	1.360	1.215	1.318	1.430	1.284	1.395	1.119	1.180	1.136	0.883																																																																																				
829	0.111	0.114	1.359	1.217	1.322	1.436	1.290	1.404	1.127	1.189	1.145	0.891																																																																																				
830	0.111	0.114	1.357	1.221	1.327	1.444	1.298	1.415	1.136	1.200	1.157	0.901																																																																																				
831	0.111	0.113	1.355	1.224	1.333	1.454	1.309	1.428	1.148	1.215	1.171	0.913																																																																																				
832	0.110	0.112	1.351	1.229	1.340	1.467	1.322	1.445	1.163	1.233	1.190	0.930																																																																																				
833	0.109	0.111	1.348	1.232	1.345	1.476	1.331	1.458	1.174	1.246	1.204	0.942																																																																																				
834	0.109	0.111	1.346	1.234	1.349	1.482	1.337	1.466	1.182	1.256	1.214	0.951																																																																																				
835	0.108	0.111	1.343	1.236	1.352	1.488	1.344	1.475	1.190	1.266	1.224	0.959																																																																																				
836	0.108	0.111	1.341	1.237	1.355	1.494	1.349	1.482	1.197	1.274	1.233	0.967																																																																																				
837	0.107	0.110	1.338	1.239	1.358	1.500	1.357	1.492	1.206	1.285	1.245	0.976																																																																																				
838	0.107	0.109	1.333	1.240	1.362	1.507	1.365	1.503	1.216	1.298	1.258	0.988																																																																																				
839	0.106	0.108	1.328	1.242	1.365	1.515	1.373	1.514	1.226	1.311	1.271	1.001																																																																																				
840	0.105	0.107	1.324	1.243	1.368	1.521	1.379	1.524	1.234	1.321	1.283	1.010																																																																																				
841	0.105	0.107	1.320	1.244	1.370	1.526	1.385	1.532	1.242	1.331	1.293	1.020																																																																																				
842	0.104	0.107	1.316	1.244	1.372	1.531	1.390	1.539	1.249	1.340	1.303	1.028																																																																																				
843	0.104	0.106	1.312	1.245	1.374	1.535	1.396	1.547	1.257	1.350	1.313	1.037																																																																																				
844	0.103	0.105	1.306	1.244	1.375	1.541	1.402	1.556	1.265	1.360	1.325	1.048																																																																																				
845	0.103	0.105	1.301	1.244	1.377	1.546	1.407	1.564	1.273	1.371	1.337	1.058																																																																																				
846	0.102	0.104	1.295	1.244	1.377	1.550	1.412	1.571	1.280	1.381	1.346	1.068																																																																																				
847	0.102	0.103	1.290	1.243	1.379	1.554	1.417	1.579	1.288	1.390	1.357	1.077																																																																																				
848	0.101	0.103	1.284	1.242	1.379	1.557	1.421	1.586	1.294	1.399	1.366	1.085																																																																																				
849	0.101	0.102	1.279	1.242	1.380	1.560	1.426	1.593	1.301	1.408	1.376	1.094																																																																																				
850	0.100	0.102	1.274	1.240	1.379	1.564	1.429	1.599	1.307	1.416	1.385	1.103																																																																																				
851	0.100	0.101	1.267	1.239	1.380	1.566	1.433	1.604	1.313	1.424	1.394	1.111																																																																																				
852	0.099	0.101	1.261	1.238	1.379	1.570	1.437	1.612	1.319	1.434	1.405	1.121																																																																																				
853	0.099	0.100	1.256	1.236	1.379	1.571	1.440	1.617	1.325	1.441	1.413	1.128																																																																																				
854	0.098	0.100	1.249	1.234	1.378	1.574	1.443	1.622	1.331	1.449	1.422	1.137																																																																																				
855	0.098	0.100	1.243	1.232	1.377	1.575	1.446	1.627	1.336	1.457	1.431	1.145																																																																																				
856	0.098	0.099	1.236	1.230	1.375	1.577	1.449	1.633	1.342	1.464	1.440	1.154																																																																																				
857	0.097	0.099	1.230	1.227	1.374	1.578	1.451	1.638	1.347	1.472	1.448	1.162																																																																																				
858	0.097	0.098	1.223	1.225	1.373	1.579	1.453	1.642	1.351	1.480	1.456	1.169																																																																																				
859	0.096	0.098	1.216	1.222	1.371	1.580	1.455	1.645	1.356	1.486	1.464	1.177																																																																																				
860	0.096	0.097	1.209	1.219	1.369	1.581	1.456	1.650	1.360	1.492	1.471	1.184																																																																																				
861	0.096	0.097	1.204	1.217	1.367	1.581	1.458	1.653	1.364	1.498	1.478	1.191																																																																																				
862	0.095	0.097	1.196	1.213	1.365	1.581	1.459	1.656	1.368	1.504	1.485	1.198																																																																																				
863	0.095	0.097	1.190	1.210	1.362	1.581	1.460	1.659	1.372	1.510	1.492	1.205																																																																																				
864	0.095	0.096	1.182	1.206	1.360	1.581	1.462	1.662	1.376	1.516	1.500	1.212																																																																																				
865	0.095	0.096	1.176	1.203	1.357	1.581	1.462	1.665	1.380	1.522	1.506	1.219																																																																																				
866	0.095	0.096	1.168	1.200	1.354	1.580	1.462	1.667	1.383	1.528	1.513	1.226																																																																																				
867	0.095	0.095	1.161	1.196	1.351	1.579	1.463	1.670	1.386	1.533	1.519	1.232																																																																																				
868	0.095	0.095	1.154	1.192	1.348	1.578	1.463	1.672	1.389	1.538	1.525	1.239																																																																																				
869	0.095	0.095	1.147	1.188	1.345	1.577	1.463	1.674	1.392	1.543	1.531	1.245																																																																																				
870	0.095	0.095	1.140	1.185	1.341	1.575	1.463	1.676	1.394	1.547	1.537	1.251																																																																																				
871	0.095	0.095	1.133	1.180	1.338	1.574	1.463	1.677	1.397	1.552	1.543	1.257																																																																																				
872	0.095	0.095	1.126	1.177	1.334	1.572	1.462	1.677	1.399	1.556	1.547	1.263																																																																																				
873	0.095	0.095	1.119	1.172	1.330	1.570	1.461	1.679	1.401	1.560	1.553	1.269																																																																																				
874	0.095	0.095	1.111	1.168	1.326	1.568	1.460	1.679	1.403	1.564	1.558	1.274																																																																																				
875	0.095	0.095	1.103	1.163	1.321	1.565	1.459	1.679	1.405	1.568	1.563	1.280																																																																																				
876	0.094	0.094	1.096	1.158	1.317	1.563	1.457	1.680	1.405	1.571	1.567	1.285																																																																																				
877	0.094	0.094	1.087	1.152	1.311	1.559	1.455	1.679	1.406	1.574	1.571	1.290																																																																																				
878	0.093	0.093	1.076	1.144	1.304	1.554	1.452	1.677	1.407	1.577	1.576	1.295																																																																																				
879	0.093	0.092	1.065	1.137	1.298	1.549	1.449	1.676	1.407	1.579	1.579	1.300																																																																																				
880	0.092	0.091	1.056	1.131	1.292	1.544	1.445	1.675	1.407	1.581	1.583	1.305																																																																																				
881	0.091	0.091	1.052	1.127	1.288	1.542	1.443	1.674	1.407	1.583	1.586	1.307																																																																																				
882	0.091	0.092	1.048	1.125	1.286	1.540	1.442	1.674	1.407	1.584	1.588	1.309																																																																																				
883	0.091	0.092	1.044	1.122	1.283	1.538	1.440	1.673	1.407	1.585	1.591	1.311																																																																																				
884	0.091	0.092	1.039	1.119	1.280	1.535	1.439	1.673	1.407	1.586	1.593	1.313																																																																																				
885	0.090	0.091	1.031	1.113	1.274	1.531	1.436	1.671	1.407	1.587	1.596	1.316																																																																																				
886	0.090	0.091	1.019	1.104	1.266	1.524	1.430	1.667	1.405	1.588	1.598	1.321																																																																																				
887	0.089	0.090	1.011	1.097	1.259	1.518	1.426	1.664	1.404	1.589	1.600	1.324																																																																																				
888	0.089	0.090	1.002	1.091	1.253	1.512	1.422	1.661	1.403	1.589	1.601	1.326																																																																																				
889	0.089	0.089	0.994	1.084	1.246	1.507	1.418	1.658	1.401	1.589	1.603	1.329																																																																																				
890	0.088	0.089	0.985	1.077	1.240	1.501	1.413	1.655	1.400	1.589	1.604	1.332																																																																																				
891	0.088	0.089	0.977	1.071	1.232	1.495	1.409	1.651	1.398	1.589	1.605	1.334																																																																																				
892	0.088	0.088	0.966	1.062	1.224	1.487	1.403	1.646	1.395	1.588	1.605	1.337																																																																																				
893	0.088	0.088	0.957	1.055	1.217	1.481	1.398	1.642	1.393	1.588	1.606	1.339																																																																																				
894	0.087	0.088	0.950	1.049	1.211	1.475	1.393	1.639	1.391	1.587	1.607	1.341																																																																																				
895	0.087	0.088	0.944	1.044	1.206	1.471	1.390	1.635	1.389	1.587	1.608	1.342																																																																																				
896	0.087	0.088	0.939	1.041	1.202	1.467	1.387	1.634	1.389	1.587	1.609	1.343																																																																																				
897	0.087	0.088	0.933	1.036	1.197	1.462	1.383	1.630	1.387	1.586	1.609	1.345																																																																																				
898	0.087	0.088	0.927	1.030	1.191	1.457	1.379	1.627	1.384	1.585	1.609	1.346																																																																																				
899	0.087	0.088	0.918	1.022	1.183	1.449	1.373	1.621	1.381	1.583	1.608	1.347																																																																																				
900	0.087	0.087	0.908	1.014	1.175	1.442	1.367	1.615	1.377	1.581	1.607	1.348																																																																																				
901	0.087	0.087	0.898	1.006	1.165	1.433	1.359	1.608	1.373	1.578	1.605	1.349																																																																																				
902	0.087	0.087	0.888	0.997	1.156	1.424	1.352	1.602	1.369	1.575	1.603	1.349																																																																																				
903	0.086	0.086	0.880	0.990	1.149	1.417	1.346	1.596	1.365	1.572	1.602	1.349																																																																																				
904	0.086	0.087	0.875	0.986	1.144	1.412	1.342	1.593	1.363	1.571	1.602	1.350																																																																																				
905	0.087	0.087	0.871	0.982	1.141	1.409	1.339	1.590	1.361	1.570	1.602	1.350																																																																																				
906	0.087	0.087	0.867	0.978	1.136	1.404	1.335	1.587	1.359	1.568	1.602	1.350																																																																																				
907	0.087	0.088	0.860	0.973	1.130	1.398	1.331	1.582	1.356	1.566	1.601	1.350																																																																																				
908	0.087	0.087	0.851	0.964	1.120	1.388	1.323	1.574	1.351	1.562	1.598	1.349																																																																																				
909	0.087	0.087	0.842	0.956	1.112	1.380	1.315	1.567	1.346	1.558	1.594	1.349																																																																																				
910	0.087	0.087	0.834	0.948	1.104	1.372	1.308	1.560	1.341	1.554	1.591	1.348																																																																																				
911	0.087	0.087	0.826	0.941	1.096	1.364	1.302	1.554	1.337	1.551	1.589	1.347																																																																																				
912	0.088	0.088	0.817	0.933	1.087	1.354	1.294	1.545	1.331	1.546	1.585	1.346																																																																																				
913	0.088	0.087	0.807	0.923	1.077	1.344	1.286	1.537	1.324	1.540	1.581	1.344																																																																																				
914	0.088	0.087	0.798	0.915	1.068	1.335	1.277	1.528	1.319	1.535	1.577	1.343																																																																																				
915	0.088	0.088	0.793	0.910	1.063	1.329	1.272	1.524	1.315	1.533	1.575	1.342																																																																																				
916	0.088	0.088	0.790	0.907	1.059	1.325	1.268	1.520	1.313	1.531	1.574	1.342																																																																																				
917	0.089	0.089	0.786	0.904	1.055	1.321	1.265	1.517	1.311	1.529	1.573	1.341																																																																																				
918	0.089	0.089	0.783	0.900	1.051	1.317	1.262	1.514	1.309	1.527	1.572	1.340																																																																																				
919	0.089	0.090	0.777	0.894	1.044	1.310	1.255	1.508	1.304	1.523	1.570	1.339																																																																																				
920	0.090	0.090	0.769	0.887	1.036	1.301	1.248	1.500	1.298	1.518	1.565	1.337																																																																																				
921	0.091	0.091	0.761	0.879	1.028	1.292	1.240	1.491	1.292	1.512	1.560	1.335																																																																																				
922	0.092	0.092	0.754	0.872	1.020	1.284	1.233	1.484	1.287	1.507	1.556	1.332																																																																																				
923	0.093	0.092	0.747	0.865	1.012	1.275	1.225	1.476	1.281	1.502	1.552	1.330																																																																																				
924	0.093	0.093	0.741	0.859	1.006	1.268	1.219	1.470	1.276	1.498	1.548	1.329																																																																																				
925	0.095	0.094	0.735	0.853	0.999	1.260	1.212	1.462	1.271	1.492	1.544	1.326																																																																																				
926	0.096	0.095	0.729	0.846	0.992	1.253	1.206	1.455	1.266	1.488	1.539	1.324																																																																																				
927	0.097	0.096	0.723	0.840	0.985	1.245	1.199	1.448	1.260	1.483	1.536	1.321																																																																																				
928	0.098	0.098	0.717	0.834	0.978	1.238	1.192	1.441	1.255	1.478	1.531	1.319																																																																																				
929	0.100	0.099	0.711	0.829	0.972	1.231	1.186	1.435	1.250	1.473	1.527	1.317																																																																																				
930	0.101	0.100	0.706	0.823	0.965	1.224	1.179	1.428	1.245	1.469	1.523	1.314																																																																																				
931	0.102	0.102	0.701	0.817	0.959	1.217	1.174	1.422	1.240	1.464	1.520	1.312																																																																																				
932	0.104	0.103	0.695	0.812	0.953	1.210	1.167	1.415	1.235	1.459	1.515	1.310																																																																																				
933	0.105	0.105	0.690	0.805	0.946	1.202	1.160	1.407	1.229	1.454	1.511	1.307																																																																																				
934	0.107	0.106	0.685	0.799	0.940	1.194	1.154	1.400	1.224	1.448	1.506	1.304																																																																																				
935	0.109	0.108	0.679	0.793	0.933	1.187	1.147	1.393	1.218	1.443	1.501	1.301																																																																																				
936	0.111	0.110	0.675	0.788	0.927	1.180	1.141	1.386	1.213	1.438	1.497	1.298																																																																																				
937	0.113	0.112	0.670	0.784	0.922	1.174	1.135	1.380	1.209	1.434	1.493	1.296																																																																																				
938	0.114	0.114	0.666	0.780	0.917	1.169	1.131	1.376	1.205	1.430	1.490	1.294																																																																																				
939	0.116	0.115	0.663	0.776	0.913	1.163	1.126	1.371	1.201	1.426	1.487	1.291																																																																																				
940	0.118	0.117	0.660	0.772	0.908	1.158	1.121	1.365	1.197	1.422	1.484	1.289																																																																																				
941	0.120	0.120	0.655	0.767	0.902	1.152	1.115	1.359	1.192	1.417	1.479	1.286																																																																																				
942	0.123	0.122	0.651	0.762	0.896	1.144	1.109	1.352	1.186	1.411	1.474	1.283																																																																																				
943	0.126	0.124	0.647	0.757	0.891	1.138	1.103	1.346	1.182	1.407	1.470	1.280																																																																																				
944	0.129	0.127	0.644	0.753	0.886	1.133	1.098	1.340	1.177	1.403	1.466	1.278																																																																																				
945	0.131	0.130	0.641	0.750	0.882	1.128	1.093	1.335	1.173	1.399	1.462	1.276																																																																																				
946	0.135	0.134	0.638	0.746	0.878	1.123	1.089	1.330	1.169	1.395	1.459	1.273																																																																																				
947	0.138	0.137	0.635	0.742	0.874	1.117	1.084	1.325	1.165	1.391	1.456	1.271																																																																																				
948	0.142	0.141	0.633	0.739	0.870	1.113	1.080	1.320	1.162	1.387	1.452	1.269																																																																																				
949	0.147	0.145	0.631	0.736	0.866	1.109	1.076	1.316	1.158	1.384	1.449	1.267																																																																																				
950	0.151	0.149	0.629	0.734	0.864	1.105	1.073	1.312	1.156	1.381	1.448	1.266																																																																																				
951	0.155	0.153	0.628	0.732	0.861	1.102	1.070	1.309	1.153	1.379	1.446	1.265																																																																																				
952	0.159	0.157	0.627	0.730	0.859	1.100	1.068	1.307	1.151	1.377	1.444	1.264																																																																																				
953	0.164	0.162	0.626	0.728	0.857	1.097	1.065	1.303	1.149	1.375	1.443	1.263																																																																																				
954	0.169	0.167	0.625	0.726	0.854	1.093	1.062	1.300	1.146	1.372	1.440	1.262																																																																																				
955	0.174	0.172	0.624	0.724	0.851	1.090	1.058	1.296	1.143	1.369	1.437	1.260																																																																																				
956	0.178	0.176	0.623	0.721	0.848	1.086	1.055	1.292	1.140	1.366	1.434	1.258																																																																																				
957	0.183	0.181	0.621	0.718	0.845	1.081	1.051	1.287	1.137	1.362	1.431	1.256																																																																																				
958	0.187	0.184	0.619	0.715	0.841	1.076	1.046	1.282	1.132	1.357	1.426	1.252																																																																																				
959	0.190	0.187	0.616	0.712	0.837	1.071	1.041	1.276	1.127	1.352	1.422	1.249																																																																																				
960	0.192	0.190	0.613	0.708	0.833	1.066	1.036	1.271	1.123	1.347	1.417	1.245																																																																																				
961	0.194	0.192	0.610	0.704	0.828	1.060	1.031	1.264	1.117	1.341	1.411	1.241																																																																																				
962	0.196	0.193	0.606	0.699	0.822	1.053	1.024	1.257	1.111	1.334	1.404	1.236																																																																																				
963	0.197	0.194	0.603	0.695	0.817	1.047	1.019	1.249	1.106	1.328	1.399	1.232																																																																																				
964	0.198	0.195	0.599	0.690	0.812	1.040	1.012	1.242	1.099	1.321	1.391	1.226																																																																																				
965	0.199	0.196	0.595	0.685	0.806	1.032	1.005	1.234	1.092	1.314	1.384	1.220																																																																																				
966	0.199	0.197	0.590	0.680	0.799	1.024	0.997	1.224	1.085	1.306	1.376	1.214																																																																																				
967	0.200	0.197	0.586	0.675	0.794	1.018	0.991	1.218	1.079	1.299	1.369	1.209																																																																																				
968	0.200	0.198	0.582	0.670	0.788	1.011	0.985	1.210	1.073	1.292	1.362	1.203																																																																																				
969	0.201	0.198	0.578	0.666	0.783	1.004	0.978	1.203	1.066	1.285	1.356	1.198																																																																																				
970	0.201	0.198	0.574	0.661	0.777	0.997	0.972	1.195	1.059	1.278	1.349	1.192																																																																																				
971	0.201	0.199	0.570	0.656	0.771	0.990	0.965	1.187	1.053	1.270	1.341	1.186																																																																																				
972	0.202	0.199	0.566	0.651	0.766	0.983	0.958	1.179	1.046	1.263	1.334	1.180																																																																																				
973	0.202	0.199	0.562	0.646	0.760	0.975	0.951	1.171	1.039	1.254	1.326	1.174																																																																																				
974	0.202	0.199	0.557	0.640	0.753	0.967	0.943	1.161	1.031	1.245	1.316	1.166																																																																																				
975	0.202	0.198	0.551	0.633	0.745	0.957	0.934	1.150	1.022	1.235	1.305	1.158																																																																																				
976	0.201	0.198	0.545	0.627	0.737	0.947	0.925	1.138	1.012	1.223	1.294	1.149																																																																																				
977	0.201	0.197	0.541	0.621	0.731	0.939	0.917	1.129	1.004	1.215	1.285	1.142																																																																																				
978	0.200	0.197	0.537	0.617	0.726	0.933	0.911	1.123	0.999	1.209	1.280	1.137																																																																																				
979	0.200	0.197	0.535	0.615	0.723	0.929	0.907	1.118	0.995	1.204	1.276	1.133																																																																																				
980	0.200	0.197	0.533	0.613	0.720	0.926	0.904	1.114	0.992	1.201	1.272	1.130																																																																																				
981	0.200	0.198	0.531	0.610	0.717	0.921	0.900	1.109	0.988	1.196	1.269	1.126																																																																																				
982	0.199	0.198	0.528	0.606	0.712	0.916	0.895	1.103	0.983	1.190	1.263	1.120																																																																																				
983	0.198	0.197	0.522	0.600	0.705	0.907	0.886	1.092	0.974	1.180	1.253	1.112																																																																																				
984	0.197	0.194	0.515	0.591	0.695	0.894	0.874	1.079	0.962	1.166	1.238	1.101																																																																																				
985	0.195	0.193	0.509	0.584	0.687	0.884	0.864	1.066	0.951	1.154	1.225	1.091																																																																																				
986	0.194	0.191	0.503	0.578	0.680	0.874	0.855	1.055	0.942	1.144	1.215	1.082																																																																																				
987	0.193	0.190	0.497	0.571	0.672	0.865	0.846	1.044	0.933	1.133	1.203	1.073																																																																																				
988	0.191	0.188	0.491	0.563	0.663	0.853	0.836	1.031	0.922	1.119	1.189	1.062																																																																																				
989	0.189	0.186	0.485	0.557	0.656	0.844	0.827	1.021	0.913	1.109	1.179	1.053																																																																																				
990	0.187	0.184	0.480	0.551	0.649	0.835	0.818	1.011	0.904	1.099	1.168	1.046																																																																																				
991	0.187	0.183	0.477	0.548	0.645	0.830	0.813	1.005	0.899	1.093	1.163	1.041																																																																																				
992	0.186	0.183	0.475	0.545	0.642	0.826	0.809	1.000	0.895	1.089	1.159	1.037																																																																																				
993	0.185	0.183	0.473	0.543	0.639	0.823	0.806	0.997	0.892	1.086	1.156	1.034																																																																																				
994	0.185	0.183	0.471	0.540	0.636	0.819	0.802	0.992	0.888	1.081	1.152	1.029																																																																																				
995	0.184	0.182	0.468	0.537	0.631	0.813	0.797	0.986	0.883	1.074	1.145	1.022																																																																																				
996	0.182	0.180	0.463	0.531	0.624	0.804	0.789	0.975	0.874	1.065	1.136	1.014																																																																																				
997	0.180	0.178	0.456	0.523	0.616	0.794	0.778	0.963	0.863	1.052	1.123	1.004																																																																																				
998	0.178	0.175	0.450	0.516	0.608	0.783	0.768	0.951	0.853	1.039	1.109	0.993																																																																																				
999	0.176	0.173	0.445	0.510	0.601	0.774	0.760	0.940	0.844	1.029	1.098	0.985																																																																																				

结果
	1	2	3	4	5	6	7	8	9	10	11	12
A	1.097	1.059	1.364	1.245	1.380	1.581	1.463	1.680	1.407	1.589	1.609	1.350	Mean Max OD [Spectrum]
B	?????	?????	?????	?????	?????	?????	?????	?????	?????	?????	?????	?????	Mean Max OD [Spectrum]
C	?????	?????	?????	?????	?????	?????	?????	?????	?????	?????	?????	?????	Mean Max OD [Spectrum]
D	?????	?????	?????	?????	?????	?????	?????	?????	?????	?????	?????	?????	Mean Max OD [Spectrum]
E	?????	?????	?????	?????	?????	?????	?????	?????	?????	?????	?????	?????	Mean Max OD [Spectrum]
F	?????	?????	?????	?????	?????	?????	?????	?????	?????	?????	?????	?????	Mean Max OD [Spectrum]
G	?????	?????	?????	?????	?????	?????	?????	?????	?????	?????	?????	?????	Mean Max OD [Spectrum]
H	?????	?????	?????	?????	?????	?????	?????	?????	?????	?????	?????	?????	Mean Max OD [Spectrum]

