

软件版本	3.11.19



实验文件路径:	
方案文件路径:	



板编号	板 5
日期	2023/5/6
时间	10:53:03
检测仪类型:	Epoch 2
检测仪序列号:	2205170B
检测类型	检测仪

程序详细信息

板类型	96 WELL PLATE
完成后弹出板	
检测	吸收光 光谱
	H1..H12
	开始: 400 nm,  停止: 999 nm,  步骤: 1 nm
	检测前校准
	检测速度: 正常,  延迟: 100 msec,  测量值/数据点: 8

Spectrum

波长	A1	A2	A3	A4	A5	A6	A7	A8	A9	A10	A11	A12	B1	B2	B3	B4	B5	B6	B7	B8	B9	B10	B11	B12	C1	C2	C3	C4	C5	C6	C7	C8	C9	C10	C11	C12	D1	D2	D3	D4	D5	D6	D7	D8	D9	D10	D11	D12	E1	E2	E3	E4	E5	E6	E7	E8	E9	E10	E11	E12	F1	F2	F3	F4	F5	F6	F7	F8	F9	F10	F11	F12	G1	G2	G3	G4	G5	G6	G7	G8	G9	G10	G11	G12	H1	H2	H3	H4	H5	H6	H7	H8	H9	H10	H11	H12
400																																																																																					0.562	0.627	0.577	0.587	0.597	0.614	0.593	0.668	0.598	0.612	0.602	0.536
401																																																																																					0.560	0.625	0.576	0.586	0.595	0.612	0.592	0.667	0.596	0.611	0.600	0.535
402																																																																																					0.559	0.623	0.574	0.584	0.594	0.611	0.590	0.665	0.595	0.609	0.599	0.534
403																																																																																					0.557	0.622	0.573	0.583	0.592	0.609	0.589	0.663	0.593	0.608	0.597	0.532
404																																																																																					0.556	0.620	0.571	0.581	0.591	0.607	0.587	0.661	0.592	0.606	0.595	0.531
405																																																																																					0.555	0.619	0.570	0.580	0.589	0.606	0.586	0.660	0.590	0.605	0.594	0.530
406																																																																																					0.553	0.617	0.569	0.579	0.588	0.605	0.584	0.658	0.589	0.603	0.593	0.528
407																																																																																					0.552	0.616	0.567	0.577	0.587	0.603	0.583	0.657	0.588	0.602	0.591	0.527
408																																																																																					0.551	0.614	0.566	0.576	0.585	0.602	0.582	0.655	0.586	0.600	0.590	0.526
409																																																																																					0.550	0.613	0.565	0.575	0.584	0.600	0.580	0.653	0.585	0.599	0.589	0.525
410																																																																																					0.548	0.611	0.563	0.573	0.582	0.599	0.579	0.652	0.583	0.597	0.587	0.523
411																																																																																					0.547	0.610	0.562	0.572	0.581	0.597	0.577	0.650	0.582	0.596	0.586	0.522
412																																																																																					0.546	0.609	0.561	0.571	0.580	0.596	0.576	0.649	0.580	0.594	0.584	0.521
413																																																																																					0.544	0.607	0.559	0.569	0.578	0.594	0.575	0.647	0.579	0.593	0.583	0.520
414																																																																																					0.543	0.606	0.558	0.568	0.577	0.593	0.573	0.646	0.578	0.592	0.582	0.518
415																																																																																					0.542	0.604	0.557	0.567	0.576	0.592	0.572	0.644	0.576	0.590	0.580	0.517
416																																																																																					0.541	0.603	0.556	0.565	0.574	0.591	0.571	0.643	0.575	0.589	0.579	0.516
417																																																																																					0.539	0.601	0.554	0.564	0.573	0.589	0.569	0.641	0.574	0.588	0.578	0.515
418																																																																																					0.538	0.600	0.553	0.563	0.572	0.588	0.568	0.640	0.572	0.586	0.576	0.514
419																																																																																					0.537	0.599	0.552	0.561	0.570	0.586	0.567	0.638	0.571	0.585	0.575	0.513
420																																																																																					0.536	0.597	0.551	0.560	0.569	0.585	0.565	0.637	0.570	0.583	0.574	0.511
421																																																																																					0.535	0.596	0.550	0.559	0.568	0.584	0.564	0.635	0.569	0.583	0.572	0.511
422																																																																																					0.534	0.595	0.549	0.558	0.567	0.583	0.563	0.634	0.568	0.581	0.571	0.510
423																																																																																					0.533	0.594	0.548	0.557	0.566	0.582	0.562	0.633	0.566	0.580	0.570	0.509
424																																																																																					0.532	0.593	0.547	0.556	0.565	0.580	0.561	0.632	0.565	0.579	0.569	0.508
425																																																																																					0.531	0.592	0.546	0.554	0.564	0.579	0.560	0.630	0.564	0.578	0.568	0.507
426																																																																																					0.529	0.591	0.544	0.553	0.562	0.578	0.559	0.629	0.563	0.577	0.567	0.506
427																																																																																					0.529	0.589	0.543	0.552	0.561	0.577	0.558	0.628	0.562	0.576	0.566	0.505
428																																																																																					0.528	0.588	0.543	0.551	0.560	0.576	0.557	0.627	0.561	0.575	0.565	0.504
429																																																																																					0.527	0.587	0.541	0.550	0.559	0.575	0.555	0.625	0.560	0.574	0.564	0.503
430																																																																																					0.525	0.586	0.540	0.549	0.558	0.574	0.554	0.624	0.558	0.572	0.563	0.502
431																																																																																					0.524	0.585	0.539	0.548	0.557	0.572	0.553	0.623	0.557	0.571	0.561	0.501
432																																																																																					0.523	0.583	0.538	0.547	0.556	0.571	0.552	0.621	0.556	0.570	0.560	0.500
433																																																																																					0.522	0.582	0.537	0.546	0.554	0.570	0.551	0.620	0.555	0.569	0.559	0.499
434																																																																																					0.521	0.581	0.536	0.544	0.553	0.569	0.550	0.619	0.554	0.568	0.558	0.498
435																																																																																					0.520	0.580	0.535	0.543	0.552	0.568	0.549	0.618	0.553	0.567	0.557	0.497
436																																																																																					0.519	0.579	0.534	0.542	0.551	0.567	0.548	0.617	0.552	0.566	0.556	0.496
437																																																																																					0.518	0.578	0.533	0.541	0.550	0.565	0.547	0.615	0.551	0.565	0.555	0.495
438																																																																																					0.517	0.577	0.532	0.540	0.549	0.564	0.545	0.614	0.550	0.564	0.554	0.494
439																																																																																					0.516	0.575	0.531	0.539	0.548	0.563	0.544	0.613	0.549	0.563	0.553	0.493
440																																																																																					0.515	0.574	0.530	0.538	0.547	0.562	0.543	0.612	0.548	0.562	0.552	0.492
441																																																																																					0.514	0.573	0.529	0.537	0.546	0.561	0.543	0.611	0.547	0.561	0.551	0.491
442																																																																																					0.514	0.572	0.528	0.536	0.545	0.560	0.542	0.609	0.546	0.560	0.550	0.490
443																																																																																					0.513	0.572	0.527	0.535	0.544	0.559	0.541	0.609	0.545	0.559	0.549	0.490
444																																																																																					0.512	0.571	0.526	0.535	0.543	0.558	0.540	0.608	0.544	0.558	0.548	0.489
445																																																																																					0.511	0.570	0.525	0.533	0.542	0.557	0.539	0.606	0.543	0.557	0.547	0.488
446																																																																																					0.510	0.569	0.524	0.533	0.541	0.556	0.538	0.605	0.543	0.556	0.546	0.487
447																																																																																					0.509	0.568	0.523	0.532	0.540	0.556	0.537	0.604	0.542	0.555	0.545	0.486
448																																																																																					0.509	0.567	0.523	0.531	0.540	0.555	0.536	0.603	0.541	0.555	0.545	0.486
449																																																																																					0.508	0.566	0.522	0.530	0.539	0.554	0.535	0.602	0.540	0.554	0.544	0.485
450																																																																																					0.507	0.565	0.521	0.529	0.538	0.553	0.535	0.602	0.539	0.553	0.543	0.484
451																																																																																					0.506	0.564	0.520	0.528	0.537	0.552	0.534	0.601	0.538	0.552	0.542	0.484
452																																																																																					0.506	0.564	0.519	0.527	0.536	0.551	0.533	0.600	0.538	0.551	0.541	0.483
453																																																																																					0.505	0.563	0.519	0.527	0.535	0.550	0.532	0.599	0.537	0.551	0.541	0.482
454																																																																																					0.504	0.562	0.518	0.526	0.535	0.550	0.532	0.598	0.536	0.550	0.540	0.482
455																																																																																					0.504	0.561	0.517	0.525	0.534	0.549	0.531	0.597	0.536	0.549	0.539	0.481
456																																																																																					0.503	0.560	0.517	0.525	0.533	0.548	0.530	0.596	0.535	0.548	0.539	0.481
457																																																																																					0.502	0.560	0.516	0.524	0.533	0.548	0.530	0.596	0.534	0.548	0.538	0.480
458																																																																																					0.502	0.559	0.515	0.523	0.532	0.547	0.529	0.595	0.534	0.547	0.537	0.480
459																																																																																					0.501	0.559	0.515	0.523	0.532	0.546	0.529	0.594	0.533	0.547	0.537	0.479
460																																																																																					0.501	0.558	0.515	0.522	0.531	0.546	0.528	0.594	0.533	0.546	0.537	0.479
461																																																																																					0.501	0.558	0.514	0.522	0.531	0.546	0.528	0.594	0.533	0.546	0.537	0.479
462																																																																																					0.501	0.558	0.514	0.522	0.531	0.546	0.528	0.593	0.533	0.546	0.536	0.478
463																																																																																					0.500	0.557	0.514	0.522	0.530	0.545	0.527	0.593	0.532	0.546	0.536	0.478
464																																																																																					0.500	0.557	0.513	0.521	0.530	0.545	0.527	0.593	0.532	0.545	0.536	0.478
465																																																																																					0.500	0.557	0.513	0.521	0.530	0.545	0.527	0.592	0.532	0.545	0.535	0.478
466																																																																																					0.500	0.556	0.513	0.521	0.530	0.544	0.527	0.592	0.532	0.545	0.535	0.478
467																																																																																					0.500	0.556	0.513	0.521	0.530	0.544	0.527	0.592	0.532	0.545	0.535	0.478
468																																																																																					0.500	0.556	0.513	0.521	0.530	0.544	0.527	0.592	0.532	0.545	0.535	0.478
469																																																																																					0.500	0.556	0.513	0.521	0.530	0.545	0.527	0.592	0.532	0.545	0.536	0.478
470																																																																																					0.500	0.557	0.513	0.521	0.530	0.545	0.527	0.593	0.532	0.545	0.536	0.478
471																																																																																					0.500	0.557	0.513	0.521	0.530	0.545	0.527	0.593	0.533	0.545	0.536	0.478
472																																																																																					0.501	0.557	0.514	0.522	0.530	0.545	0.528	0.593	0.533	0.546	0.537	0.479
473																																																																																					0.501	0.558	0.514	0.522	0.531	0.546	0.528	0.594	0.534	0.546	0.537	0.479
474																																																																																					0.502	0.558	0.515	0.523	0.532	0.547	0.529	0.595	0.535	0.547	0.538	0.480
475																																																																																					0.502	0.559	0.516	0.523	0.532	0.547	0.530	0.595	0.535	0.548	0.539	0.481
476																																																																																					0.503	0.560	0.516	0.524	0.533	0.548	0.531	0.596	0.536	0.549	0.540	0.481
477																																																																																					0.504	0.561	0.517	0.525	0.534	0.549	0.531	0.597	0.537	0.550	0.541	0.482
478																																																																																					0.505	0.562	0.519	0.526	0.535	0.551	0.533	0.599	0.539	0.551	0.542	0.483
479																																																																																					0.507	0.564	0.520	0.528	0.537	0.552	0.534	0.600	0.540	0.552	0.543	0.485
480																																																																																					0.508	0.566	0.522	0.529	0.539	0.554	0.536	0.602	0.542	0.554	0.545	0.486
481																																																																																					0.510	0.568	0.524	0.531	0.541	0.556	0.538	0.605	0.544	0.556	0.547	0.488
482																																																																																					0.512	0.570	0.526	0.534	0.543	0.558	0.540	0.608	0.547	0.559	0.550	0.491
483																																																																																					0.514	0.573	0.528	0.536	0.545	0.561	0.542	0.610	0.549	0.561	0.552	0.492
484																																																																																					0.516	0.575	0.530	0.538	0.547	0.563	0.544	0.612	0.551	0.563	0.554	0.494
485																																																																																					0.518	0.577	0.532	0.540	0.549	0.565	0.546	0.615	0.553	0.565	0.556	0.496
486																																																																																					0.521	0.579	0.534	0.542	0.552	0.567	0.549	0.617	0.556	0.567	0.559	0.498
487																																																																																					0.524	0.583	0.538	0.546	0.555	0.571	0.552	0.621	0.559	0.571	0.562	0.501
488																																																																																					0.527	0.586	0.541	0.549	0.558	0.574	0.555	0.625	0.563	0.574	0.565	0.504
489																																																																																					0.530	0.590	0.544	0.552	0.561	0.578	0.559	0.628	0.566	0.577	0.569	0.507
490																																																																																					0.533	0.594	0.548	0.556	0.565	0.582	0.563	0.633	0.570	0.581	0.573	0.510
491																																																																																					0.538	0.599	0.552	0.561	0.570	0.586	0.567	0.638	0.575	0.586	0.577	0.515
492																																																																																					0.541	0.603	0.556	0.564	0.574	0.590	0.571	0.643	0.579	0.589	0.581	0.518
493																																																																																					0.545	0.607	0.560	0.568	0.578	0.594	0.575	0.647	0.583	0.593	0.585	0.522
494																																																																																					0.549	0.612	0.564	0.573	0.582	0.599	0.579	0.652	0.588	0.598	0.590	0.526
495																																																																																					0.554	0.616	0.569	0.578	0.587	0.604	0.584	0.658	0.593	0.602	0.594	0.530
496																																																																																					0.559	0.623	0.574	0.583	0.593	0.610	0.590	0.664	0.598	0.608	0.600	0.535
497																																																																																					0.564	0.628	0.580	0.589	0.598	0.616	0.595	0.670	0.604	0.613	0.606	0.540
498																																																																																					0.569	0.633	0.584	0.593	0.603	0.621	0.600	0.676	0.609	0.618	0.611	0.544
499																																																																																					0.573	0.638	0.588	0.598	0.607	0.625	0.604	0.681	0.613	0.622	0.615	0.548
500																																																																																					0.578	0.643	0.593	0.602	0.612	0.630	0.609	0.686	0.618	0.627	0.620	0.552
501																																																																																					0.582	0.648	0.598	0.607	0.617	0.636	0.614	0.692	0.624	0.632	0.625	0.557
502																																																																																					0.587	0.653	0.603	0.612	0.622	0.641	0.619	0.698	0.628	0.637	0.630	0.561
503																																																																																					0.591	0.658	0.607	0.617	0.627	0.646	0.624	0.703	0.633	0.641	0.634	0.565
504																																																																																					0.596	0.663	0.612	0.621	0.632	0.651	0.629	0.708	0.638	0.646	0.639	0.570
505																																																																																					0.599	0.667	0.615	0.625	0.635	0.654	0.632	0.712	0.641	0.649	0.642	0.573
506																																																																																					0.603	0.671	0.619	0.629	0.639	0.658	0.636	0.717	0.646	0.653	0.646	0.577
507																																																																																					0.606	0.674	0.622	0.632	0.642	0.662	0.639	0.720	0.649	0.656	0.650	0.580
508																																																																																					0.609	0.678	0.625	0.635	0.645	0.665	0.643	0.724	0.652	0.659	0.653	0.583
509																																																																																					0.611	0.680	0.628	0.638	0.648	0.668	0.645	0.727	0.655	0.661	0.656	0.585
510																																																																																					0.614	0.683	0.630	0.640	0.650	0.670	0.647	0.730	0.658	0.663	0.658	0.588
511																																																																																					0.615	0.684	0.632	0.642	0.652	0.672	0.649	0.731	0.659	0.665	0.660	0.589
512																																																																																					0.617	0.686	0.633	0.643	0.653	0.673	0.650	0.733	0.661	0.666	0.661	0.591
513																																																																																					0.617	0.686	0.634	0.644	0.654	0.674	0.651	0.733	0.662	0.666	0.661	0.592
514																																																																																					0.617	0.687	0.634	0.644	0.654	0.674	0.651	0.733	0.662	0.666	0.662	0.592
515																																																																																					0.618	0.686	0.634	0.644	0.654	0.674	0.651	0.733	0.662	0.666	0.662	0.592
516																																																																																					0.617	0.686	0.633	0.643	0.653	0.673	0.651	0.732	0.661	0.665	0.661	0.592
517																																																																																					0.616	0.685	0.632	0.642	0.652	0.672	0.649	0.731	0.660	0.663	0.660	0.591
518																																																																																					0.615	0.683	0.631	0.641	0.650	0.671	0.648	0.729	0.659	0.662	0.658	0.590
519																																																																																					0.613	0.681	0.629	0.639	0.649	0.669	0.646	0.727	0.657	0.660	0.657	0.589
520																																																																																					0.612	0.680	0.627	0.637	0.647	0.667	0.644	0.725	0.656	0.658	0.655	0.588
521																																																																																					0.610	0.677	0.625	0.635	0.645	0.664	0.642	0.722	0.653	0.655	0.652	0.586
522																																																																																					0.607	0.674	0.623	0.632	0.642	0.662	0.639	0.719	0.650	0.652	0.650	0.584
523																																																																																					0.604	0.671	0.619	0.629	0.638	0.658	0.636	0.715	0.647	0.648	0.646	0.581
524																																																																																					0.601	0.667	0.616	0.626	0.635	0.655	0.632	0.711	0.644	0.644	0.642	0.579
525																																																																																					0.598	0.664	0.613	0.623	0.632	0.651	0.629	0.707	0.640	0.641	0.639	0.576
526																																																																																					0.595	0.660	0.609	0.619	0.628	0.647	0.625	0.702	0.636	0.636	0.635	0.572
527																																																																																					0.591	0.656	0.605	0.615	0.624	0.643	0.622	0.697	0.632	0.632	0.631	0.569
528																																																																																					0.588	0.652	0.602	0.611	0.620	0.639	0.618	0.693	0.628	0.628	0.627	0.566
529																																																																																					0.585	0.649	0.599	0.608	0.617	0.636	0.615	0.689	0.625	0.624	0.623	0.563
530																																																																																					0.582	0.645	0.596	0.605	0.614	0.632	0.611	0.685	0.621	0.620	0.620	0.560
531																																																																																					0.578	0.641	0.592	0.601	0.610	0.628	0.607	0.680	0.617	0.616	0.615	0.556
532																																																																																					0.574	0.636	0.587	0.596	0.604	0.623	0.602	0.674	0.611	0.610	0.609	0.551
533																																																																																					0.569	0.631	0.583	0.591	0.600	0.618	0.597	0.668	0.606	0.604	0.604	0.547
534																																																																																					0.565	0.627	0.578	0.587	0.595	0.613	0.592	0.663	0.601	0.599	0.599	0.543
535																																																																																					0.561	0.622	0.574	0.583	0.591	0.608	0.588	0.658	0.596	0.594	0.594	0.538
536																																																																																					0.557	0.617	0.570	0.579	0.586	0.604	0.584	0.653	0.591	0.589	0.589	0.535
537																																																																																					0.552	0.612	0.565	0.573	0.581	0.599	0.579	0.647	0.585	0.583	0.584	0.530
538																																																																																					0.548	0.607	0.560	0.569	0.576	0.594	0.574	0.641	0.580	0.577	0.578	0.525
539																																																																																					0.543	0.601	0.555	0.563	0.571	0.588	0.568	0.635	0.573	0.571	0.572	0.519
540																																																																																					0.537	0.595	0.549	0.558	0.565	0.582	0.562	0.628	0.567	0.564	0.565	0.514
541																																																																																					0.533	0.590	0.545	0.553	0.560	0.577	0.557	0.622	0.561	0.559	0.559	0.509
542																																																																																					0.529	0.585	0.540	0.548	0.555	0.572	0.552	0.617	0.556	0.553	0.554	0.504
543																																																																																					0.524	0.581	0.536	0.544	0.551	0.567	0.548	0.612	0.551	0.548	0.549	0.500
544																																																																																					0.519	0.575	0.531	0.538	0.545	0.561	0.542	0.605	0.544	0.542	0.543	0.495
545																																																																																					0.514	0.569	0.525	0.532	0.539	0.555	0.536	0.598	0.538	0.535	0.537	0.489
546																																																																																					0.508	0.562	0.519	0.527	0.533	0.549	0.531	0.591	0.531	0.529	0.530	0.483
547																																																																																					0.503	0.557	0.514	0.522	0.528	0.544	0.525	0.586	0.525	0.523	0.524	0.478
548																																																																																					0.498	0.551	0.508	0.516	0.522	0.538	0.520	0.579	0.519	0.517	0.518	0.473
549																																																																																					0.493	0.545	0.503	0.511	0.517	0.532	0.515	0.573	0.513	0.512	0.513	0.468
550																																																																																					0.488	0.539	0.497	0.505	0.511	0.526	0.509	0.566	0.506	0.505	0.506	0.462
551																																																																																					0.482	0.533	0.492	0.499	0.505	0.519	0.503	0.559	0.500	0.499	0.500	0.456
552																																																																																					0.476	0.526	0.485	0.492	0.499	0.513	0.496	0.552	0.493	0.492	0.493	0.451
553																																																																																					0.471	0.520	0.480	0.487	0.493	0.507	0.491	0.546	0.487	0.486	0.487	0.446
554																																																																																					0.465	0.513	0.474	0.481	0.487	0.501	0.485	0.539	0.481	0.480	0.481	0.440
555																																																																																					0.460	0.507	0.468	0.475	0.481	0.495	0.479	0.533	0.474	0.474	0.475	0.435
556																																																																																					0.454	0.500	0.462	0.469	0.475	0.488	0.473	0.525	0.468	0.468	0.468	0.429
557																																																																																					0.448	0.494	0.456	0.463	0.469	0.482	0.467	0.519	0.462	0.462	0.463	0.423
558																																																																																					0.442	0.487	0.450	0.456	0.462	0.475	0.460	0.512	0.455	0.456	0.456	0.418
559																																																																																					0.437	0.481	0.444	0.451	0.457	0.470	0.455	0.506	0.449	0.451	0.451	0.413
560																																																																																					0.431	0.474	0.438	0.444	0.451	0.463	0.449	0.499	0.443	0.444	0.445	0.407
561																																																																																					0.425	0.468	0.432	0.438	0.444	0.457	0.443	0.492	0.437	0.439	0.439	0.402
562																																																																																					0.420	0.462	0.426	0.433	0.439	0.451	0.438	0.487	0.432	0.433	0.433	0.397
563																																																																																					0.415	0.456	0.421	0.428	0.434	0.446	0.433	0.481	0.427	0.429	0.429	0.393
564																																																																																					0.410	0.450	0.416	0.422	0.429	0.441	0.428	0.475	0.421	0.424	0.423	0.389
565																																																																																					0.404	0.444	0.410	0.416	0.422	0.434	0.422	0.469	0.416	0.418	0.418	0.383
566																																																																																					0.399	0.438	0.405	0.411	0.417	0.429	0.416	0.463	0.410	0.413	0.413	0.379
567																																																																																					0.394	0.432	0.399	0.406	0.412	0.423	0.411	0.458	0.406	0.409	0.408	0.374
568																																																																																					0.390	0.427	0.394	0.401	0.407	0.418	0.407	0.452	0.401	0.404	0.404	0.370
569																																																																																					0.385	0.421	0.389	0.395	0.402	0.413	0.402	0.447	0.396	0.400	0.399	0.366
570																																																																																					0.380	0.416	0.384	0.391	0.397	0.408	0.397	0.441	0.391	0.396	0.395	0.362
571																																																																																					0.375	0.410	0.379	0.385	0.392	0.403	0.392	0.436	0.387	0.391	0.390	0.357
572																																																																																					0.370	0.405	0.374	0.380	0.387	0.398	0.387	0.431	0.382	0.387	0.386	0.354
573																																																																																					0.367	0.401	0.370	0.377	0.383	0.394	0.384	0.427	0.379	0.384	0.382	0.351
574																																																																																					0.363	0.396	0.365	0.372	0.379	0.389	0.379	0.422	0.374	0.380	0.378	0.347
575																																																																																					0.359	0.391	0.361	0.368	0.375	0.385	0.376	0.418	0.371	0.376	0.374	0.344
576																																																																																					0.355	0.387	0.357	0.364	0.371	0.381	0.372	0.414	0.367	0.373	0.371	0.340
577																																																																																					0.351	0.382	0.353	0.360	0.367	0.377	0.368	0.410	0.363	0.369	0.367	0.337
578																																																																																					0.348	0.378	0.349	0.356	0.363	0.373	0.364	0.406	0.360	0.366	0.364	0.334
579																																																																																					0.344	0.374	0.345	0.352	0.359	0.369	0.361	0.402	0.356	0.363	0.360	0.331
580																																																																																					0.340	0.369	0.341	0.348	0.356	0.366	0.357	0.398	0.353	0.359	0.357	0.328
581																																																																																					0.337	0.365	0.338	0.345	0.352	0.362	0.354	0.395	0.350	0.356	0.354	0.325
582																																																																																					0.334	0.362	0.334	0.341	0.349	0.359	0.351	0.391	0.346	0.354	0.351	0.322
583																																																																																					0.331	0.358	0.331	0.338	0.346	0.356	0.348	0.388	0.344	0.351	0.348	0.319
584																																																																																					0.328	0.355	0.328	0.335	0.343	0.353	0.345	0.385	0.341	0.348	0.346	0.317
585																																																																																					0.325	0.351	0.325	0.332	0.340	0.350	0.343	0.382	0.338	0.346	0.343	0.314
586																																																																																					0.322	0.348	0.322	0.329	0.337	0.347	0.340	0.379	0.335	0.343	0.340	0.312
587																																																																																					0.320	0.345	0.320	0.327	0.335	0.345	0.338	0.377	0.333	0.342	0.338	0.310
588																																																																																					0.318	0.343	0.317	0.324	0.333	0.343	0.336	0.375	0.331	0.340	0.336	0.308
589																																																																																					0.315	0.340	0.315	0.322	0.331	0.341	0.334	0.373	0.329	0.338	0.334	0.306
590																																																																																					0.313	0.337	0.312	0.320	0.329	0.339	0.333	0.371	0.327	0.336	0.332	0.304
591																																																																																					0.312	0.335	0.310	0.318	0.327	0.337	0.331	0.370	0.325	0.334	0.331	0.302
592																																																																																					0.310	0.333	0.308	0.316	0.325	0.335	0.329	0.368	0.323	0.333	0.329	0.301
593																																																																																					0.308	0.331	0.306	0.314	0.324	0.333	0.328	0.367	0.321	0.331	0.328	0.299
594																																																																																					0.307	0.329	0.305	0.313	0.322	0.332	0.327	0.365	0.320	0.330	0.326	0.298
595																																																																																					0.305	0.327	0.303	0.311	0.321	0.331	0.326	0.364	0.318	0.329	0.325	0.296
596																																																																																					0.304	0.326	0.302	0.310	0.320	0.330	0.325	0.363	0.317	0.328	0.324	0.295
597																																																																																					0.303	0.324	0.300	0.309	0.319	0.329	0.324	0.363	0.316	0.327	0.323	0.294
598																																																																																					0.302	0.323	0.299	0.308	0.318	0.328	0.324	0.362	0.315	0.327	0.322	0.294
599																																																																																					0.301	0.322	0.298	0.307	0.317	0.328	0.323	0.362	0.314	0.326	0.321	0.293
600																																																																																					0.300	0.321	0.297	0.306	0.317	0.327	0.323	0.361	0.313	0.326	0.321	0.292
601																																																																																					0.300	0.320	0.296	0.305	0.316	0.327	0.323	0.361	0.312	0.325	0.320	0.291
602																																																																																					0.299	0.319	0.296	0.305	0.316	0.326	0.322	0.361	0.312	0.325	0.320	0.291
603																																																																																					0.298	0.318	0.295	0.304	0.316	0.326	0.322	0.362	0.311	0.325	0.319	0.290
604																																																																																					0.298	0.318	0.295	0.304	0.316	0.326	0.323	0.362	0.311	0.325	0.319	0.290
605																																																																																					0.298	0.317	0.294	0.304	0.316	0.326	0.323	0.362	0.311	0.325	0.319	0.290
606																																																																																					0.298	0.317	0.294	0.304	0.316	0.327	0.323	0.363	0.311	0.325	0.320	0.290
607																																																																																					0.298	0.317	0.294	0.304	0.316	0.327	0.324	0.364	0.311	0.325	0.320	0.290
608																																																																																					0.298	0.317	0.294	0.304	0.316	0.328	0.324	0.365	0.311	0.326	0.320	0.290
609																																																																																					0.299	0.317	0.294	0.304	0.317	0.328	0.325	0.365	0.311	0.326	0.320	0.290
610																																																																																					0.299	0.317	0.294	0.305	0.317	0.329	0.326	0.367	0.312	0.327	0.321	0.290
611																																																																																					0.300	0.317	0.295	0.305	0.318	0.330	0.327	0.368	0.313	0.328	0.322	0.291
612																																																																																					0.300	0.318	0.295	0.306	0.319	0.331	0.328	0.369	0.313	0.328	0.322	0.291
613																																																																																					0.301	0.318	0.295	0.306	0.320	0.332	0.329	0.371	0.314	0.329	0.323	0.292
614																																																																																					0.302	0.319	0.296	0.307	0.321	0.333	0.331	0.373	0.315	0.331	0.324	0.292
615																																																																																					0.302	0.319	0.297	0.308	0.322	0.335	0.332	0.375	0.316	0.332	0.326	0.293
616																																																																																					0.304	0.320	0.298	0.310	0.324	0.336	0.334	0.377	0.317	0.333	0.327	0.294
617																																																																																					0.305	0.321	0.299	0.311	0.325	0.338	0.336	0.379	0.318	0.335	0.328	0.295
618																																																																																					0.306	0.322	0.300	0.312	0.327	0.340	0.338	0.382	0.320	0.337	0.330	0.297
619																																																																																					0.307	0.323	0.301	0.314	0.328	0.342	0.340	0.384	0.321	0.338	0.332	0.298
620																																																																																					0.309	0.325	0.302	0.315	0.331	0.344	0.342	0.387	0.323	0.340	0.334	0.299
621																																																																																					0.311	0.326	0.304	0.317	0.333	0.346	0.345	0.390	0.325	0.343	0.336	0.301
622																																																																																					0.313	0.328	0.306	0.319	0.335	0.349	0.347	0.394	0.327	0.345	0.338	0.303
623																																																																																					0.315	0.330	0.307	0.321	0.337	0.352	0.350	0.397	0.329	0.347	0.340	0.305
624																																																																																					0.316	0.331	0.309	0.323	0.339	0.354	0.352	0.400	0.331	0.349	0.342	0.306
625																																																																																					0.319	0.333	0.311	0.325	0.342	0.357	0.355	0.404	0.333	0.352	0.345	0.308
626																																																																																					0.321	0.335	0.313	0.328	0.345	0.360	0.359	0.407	0.336	0.355	0.347	0.310
627																																																																																					0.323	0.338	0.315	0.330	0.348	0.363	0.362	0.411	0.338	0.358	0.350	0.313
628																																																																																					0.326	0.340	0.317	0.333	0.351	0.367	0.365	0.415	0.341	0.361	0.353	0.315
629																																																																																					0.328	0.342	0.320	0.336	0.354	0.370	0.369	0.420	0.344	0.364	0.356	0.318
630																																																																																					0.332	0.345	0.323	0.339	0.357	0.374	0.373	0.425	0.347	0.367	0.360	0.321
631																																																																																					0.334	0.348	0.325	0.342	0.361	0.378	0.377	0.429	0.351	0.371	0.363	0.323
632																																																																																					0.338	0.351	0.328	0.345	0.364	0.382	0.381	0.434	0.354	0.374	0.367	0.326
633																																																																																					0.341	0.354	0.331	0.348	0.368	0.386	0.385	0.440	0.358	0.379	0.371	0.330
634																																																																																					0.344	0.357	0.334	0.352	0.372	0.391	0.390	0.445	0.361	0.382	0.375	0.333
635																																																																																					0.348	0.361	0.338	0.356	0.377	0.396	0.395	0.451	0.366	0.387	0.379	0.337
636																																																																																					0.352	0.364	0.341	0.360	0.381	0.400	0.400	0.457	0.370	0.391	0.384	0.340
637																																																																																					0.356	0.368	0.345	0.364	0.386	0.406	0.405	0.463	0.374	0.396	0.388	0.344
638																																																																																					0.360	0.372	0.349	0.368	0.391	0.411	0.410	0.470	0.379	0.401	0.393	0.348
639																																																																																					0.364	0.377	0.353	0.373	0.396	0.417	0.416	0.477	0.384	0.406	0.398	0.352
640																																																																																					0.369	0.381	0.357	0.378	0.402	0.422	0.422	0.484	0.389	0.412	0.404	0.357
641																																																																																					0.374	0.386	0.362	0.383	0.407	0.428	0.428	0.491	0.394	0.417	0.409	0.362
642																																																																																					0.379	0.391	0.366	0.388	0.413	0.435	0.435	0.499	0.400	0.423	0.415	0.367
643																																																																																					0.384	0.395	0.371	0.394	0.419	0.441	0.441	0.507	0.406	0.429	0.421	0.372
644																																																																																					0.389	0.401	0.376	0.399	0.425	0.448	0.448	0.515	0.412	0.436	0.428	0.377
645																																																																																					0.395	0.406	0.382	0.405	0.431	0.456	0.455	0.523	0.418	0.443	0.434	0.383
646																																																																																					0.401	0.412	0.387	0.411	0.438	0.463	0.463	0.532	0.424	0.449	0.441	0.388
647																																																																																					0.407	0.418	0.393	0.418	0.445	0.470	0.470	0.541	0.431	0.456	0.448	0.394
648																																																																																					0.414	0.424	0.399	0.424	0.453	0.478	0.478	0.551	0.439	0.464	0.456	0.400
649																																																																																					0.420	0.431	0.405	0.431	0.461	0.487	0.487	0.561	0.446	0.472	0.464	0.407
650																																																																																					0.426	0.436	0.410	0.437	0.467	0.494	0.494	0.570	0.453	0.478	0.470	0.413
651																																																																																					0.433	0.443	0.417	0.445	0.475	0.503	0.502	0.580	0.460	0.487	0.479	0.419
652																																																																																					0.440	0.450	0.423	0.451	0.482	0.511	0.511	0.590	0.468	0.495	0.486	0.426
653																																																																																					0.447	0.457	0.430	0.459	0.491	0.519	0.520	0.600	0.476	0.503	0.494	0.433
654																																																																																					0.455	0.464	0.437	0.467	0.499	0.529	0.529	0.611	0.484	0.512	0.503	0.441
655																																																																																					0.462	0.472	0.445	0.475	0.509	0.539	0.538	0.623	0.493	0.521	0.513	0.448
656																																																																																					0.470	0.480	0.453	0.484	0.518	0.549	0.548	0.635	0.502	0.531	0.522	0.457
657																																																																																					0.479	0.488	0.461	0.493	0.528	0.559	0.559	0.647	0.512	0.541	0.533	0.465
658																																																																																					0.488	0.497	0.469	0.502	0.537	0.570	0.570	0.659	0.522	0.551	0.542	0.473
659																																																																																					0.497	0.506	0.478	0.511	0.548	0.581	0.581	0.673	0.532	0.562	0.553	0.483
660																																																																																					0.505	0.514	0.485	0.520	0.557	0.591	0.591	0.684	0.542	0.572	0.563	0.491
661																																																																																					0.515	0.524	0.495	0.530	0.568	0.603	0.602	0.698	0.553	0.583	0.575	0.500
662																																																																																					0.525	0.534	0.504	0.540	0.579	0.615	0.614	0.712	0.564	0.595	0.586	0.510
663																																																																																					0.535	0.544	0.514	0.551	0.591	0.627	0.626	0.727	0.576	0.607	0.598	0.520
664																																																																																					0.545	0.554	0.524	0.562	0.602	0.639	0.638	0.741	0.587	0.619	0.610	0.530
665																																																																																					0.556	0.565	0.534	0.572	0.613	0.652	0.651	0.755	0.599	0.631	0.623	0.541
666																																																																																					0.566	0.575	0.543	0.583	0.625	0.663	0.662	0.769	0.611	0.643	0.634	0.550
667																																																																																					0.577	0.587	0.554	0.595	0.638	0.677	0.676	0.785	0.624	0.656	0.647	0.562
668																																																																																					0.589	0.599	0.566	0.607	0.650	0.691	0.690	0.801	0.637	0.670	0.661	0.574
669																																																																																					0.600	0.611	0.577	0.619	0.664	0.705	0.703	0.817	0.650	0.684	0.675	0.585
670																																																																																					0.612	0.623	0.588	0.631	0.677	0.719	0.717	0.833	0.664	0.698	0.689	0.597
671																																																																																					0.624	0.635	0.601	0.644	0.691	0.733	0.731	0.850	0.678	0.712	0.703	0.609
672																																																																																					0.636	0.647	0.612	0.656	0.703	0.747	0.744	0.866	0.691	0.726	0.717	0.621
673																																																																																					0.649	0.660	0.624	0.670	0.718	0.762	0.759	0.883	0.706	0.741	0.732	0.633
674																																																																																					0.662	0.674	0.637	0.684	0.733	0.778	0.775	0.901	0.722	0.757	0.749	0.647
675																																																																																					0.676	0.688	0.650	0.698	0.747	0.793	0.790	0.919	0.737	0.773	0.764	0.660
676																																																																																					0.690	0.703	0.664	0.713	0.763	0.810	0.806	0.938	0.753	0.789	0.780	0.674
677																																																																																					0.703	0.716	0.677	0.727	0.777	0.826	0.821	0.956	0.768	0.805	0.796	0.687
678																																																																																					0.717	0.732	0.691	0.742	0.793	0.842	0.837	0.974	0.785	0.822	0.813	0.701
679																																																																																					0.731	0.746	0.705	0.757	0.808	0.858	0.854	0.993	0.801	0.838	0.829	0.715
680																																																																																					0.747	0.762	0.721	0.772	0.825	0.875	0.870	1.012	0.819	0.856	0.847	0.729
681																																																																																					0.762	0.778	0.736	0.788	0.842	0.893	0.887	1.033	0.836	0.874	0.865	0.744
682																																																																																					0.776	0.794	0.750	0.804	0.858	0.910	0.903	1.051	0.853	0.891	0.882	0.759
683																																																																																					0.791	0.810	0.764	0.819	0.874	0.927	0.919	1.070	0.870	0.909	0.899	0.773
684																																																																																					0.806	0.826	0.780	0.835	0.890	0.945	0.937	1.090	0.887	0.926	0.917	0.788
685																																																																																					0.823	0.843	0.796	0.852	0.908	0.963	0.954	1.111	0.906	0.945	0.936	0.804
686																																																																																					0.840	0.862	0.814	0.870	0.927	0.982	0.973	1.133	0.926	0.965	0.956	0.820
687																																																																																					0.857	0.880	0.831	0.888	0.946	1.001	0.992	1.154	0.945	0.985	0.976	0.837
688																																																																																					0.874	0.899	0.848	0.906	0.963	1.021	1.010	1.176	0.964	1.004	0.995	0.853
689																																																																																					0.891	0.917	0.865	0.924	0.982	1.039	1.028	1.196	0.983	1.024	1.014	0.869
690																																																																																					0.907	0.935	0.881	0.941	0.999	1.058	1.045	1.216	1.002	1.042	1.033	0.884
691																																																																																					0.923	0.952	0.898	0.958	1.017	1.075	1.063	1.236	1.019	1.060	1.051	0.899
692																																																																																					0.940	0.971	0.915	0.976	1.036	1.094	1.081	1.257	1.039	1.079	1.070	0.915
693																																																																																					0.958	0.991	0.933	0.995	1.055	1.114	1.099	1.279	1.059	1.100	1.090	0.932
694																																																																																					0.975	1.010	0.951	1.013	1.073	1.133	1.118	1.300	1.078	1.119	1.110	0.949
695																																																																																					0.992	1.029	0.969	1.030	1.091	1.152	1.135	1.320	1.097	1.139	1.128	0.964
696																																																																																					1.009	1.048	0.987	1.050	1.110	1.172	1.154	1.342	1.117	1.159	1.149	0.981
697																																																																																					1.029	1.070	1.007	1.070	1.131	1.193	1.174	1.365	1.138	1.180	1.170	0.999
698																																																																																					1.045	1.089	1.024	1.087	1.148	1.210	1.190	1.385	1.156	1.199	1.189	1.014
699																																																																																					1.062	1.107	1.042	1.105	1.166	1.229	1.208	1.404	1.175	1.217	1.206	1.030
700																																																																																					1.077	1.126	1.058	1.122	1.183	1.246	1.224	1.422	1.192	1.235	1.224	1.044
701																																																																																					1.095	1.145	1.076	1.140	1.200	1.265	1.242	1.443	1.211	1.254	1.243	1.059
702																																																																																					1.112	1.165	1.094	1.159	1.219	1.284	1.259	1.463	1.230	1.273	1.261	1.075
703																																																																																					1.131	1.187	1.115	1.179	1.239	1.304	1.279	1.484	1.251	1.295	1.282	1.093
704																																																																																					1.148	1.207	1.133	1.197	1.258	1.323	1.296	1.505	1.269	1.313	1.301	1.108
705																																																																																					1.165	1.226	1.151	1.215	1.275	1.340	1.313	1.525	1.288	1.331	1.319	1.123
706																																																																																					1.182	1.246	1.169	1.232	1.293	1.358	1.330	1.544	1.306	1.350	1.337	1.139
707																																																																																					1.199	1.266	1.186	1.251	1.311	1.377	1.346	1.563	1.325	1.369	1.355	1.154
708																																																																																					1.215	1.285	1.205	1.269	1.328	1.395	1.363	1.581	1.343	1.386	1.373	1.169
709																																																																																					1.233	1.306	1.223	1.287	1.346	1.412	1.380	1.601	1.362	1.405	1.391	1.184
710																																																																																					1.249	1.324	1.240	1.304	1.363	1.429	1.395	1.618	1.378	1.422	1.407	1.198
711																																																																																					1.266	1.344	1.258	1.321	1.380	1.446	1.411	1.636	1.396	1.440	1.425	1.212
712																																																																																					1.280	1.363	1.274	1.337	1.396	1.462	1.426	1.653	1.412	1.456	1.440	1.226
713																																																																																					1.296	1.382	1.292	1.355	1.413	1.479	1.442	1.670	1.429	1.474	1.457	1.241
714																																																																																					1.313	1.402	1.310	1.372	1.429	1.496	1.456	1.687	1.446	1.490	1.474	1.254
715																																																																																					1.329	1.421	1.328	1.389	1.446	1.512	1.471	1.705	1.463	1.507	1.490	1.268
716																																																																																					1.344	1.440	1.344	1.405	1.462	1.528	1.485	1.720	1.478	1.523	1.505	1.281
717																																																																																					1.359	1.458	1.361	1.422	1.476	1.543	1.500	1.736	1.494	1.539	1.520	1.294
718																																																																																					1.373	1.476	1.377	1.437	1.491	1.558	1.512	1.751	1.508	1.553	1.534	1.306
719																																																																																					1.387	1.494	1.394	1.453	1.506	1.573	1.527	1.766	1.524	1.569	1.549	1.319
720																																																																																					1.401	1.511	1.409	1.468	1.520	1.586	1.538	1.780	1.537	1.582	1.562	1.330
721																																																																																					1.415	1.529	1.425	1.483	1.535	1.600	1.552	1.794	1.552	1.597	1.576	1.342
722																																																																																					1.430	1.548	1.442	1.498	1.549	1.615	1.564	1.809	1.567	1.612	1.590	1.354
723																																																																																					1.443	1.565	1.457	1.513	1.563	1.628	1.576	1.823	1.581	1.625	1.603	1.365
724																																																																																					1.456	1.581	1.472	1.527	1.576	1.641	1.588	1.835	1.593	1.638	1.615	1.376
725																																																																																					1.469	1.598	1.486	1.541	1.589	1.654	1.599	1.847	1.606	1.651	1.627	1.386
726																																																																																					1.481	1.614	1.501	1.555	1.601	1.666	1.609	1.859	1.618	1.663	1.639	1.396
727																																																																																					1.493	1.630	1.515	1.568	1.614	1.678	1.620	1.871	1.630	1.675	1.650	1.406
728																																																																																					1.505	1.646	1.530	1.581	1.626	1.689	1.630	1.882	1.641	1.686	1.661	1.415
729																																																																																					1.516	1.661	1.543	1.594	1.636	1.700	1.640	1.893	1.653	1.697	1.671	1.424
730																																																																																					1.527	1.676	1.556	1.606	1.647	1.710	1.649	1.903	1.662	1.707	1.681	1.432
731																																																																																					1.538	1.691	1.569	1.618	1.658	1.721	1.658	1.912	1.673	1.717	1.690	1.440
732																																																																																					1.548	1.705	1.581	1.629	1.668	1.730	1.666	1.922	1.682	1.726	1.698	1.448
733																																																																																					1.557	1.718	1.594	1.640	1.678	1.740	1.673	1.930	1.691	1.735	1.707	1.455
734																																																																																					1.566	1.731	1.604	1.649	1.686	1.748	1.681	1.937	1.698	1.743	1.714	1.461
735																																																																																					1.575	1.743	1.616	1.659	1.695	1.756	1.687	1.944	1.706	1.750	1.721	1.467
736																																																																																					1.584	1.756	1.627	1.669	1.703	1.763	1.694	1.952	1.713	1.758	1.728	1.472
737																																																																																					1.592	1.768	1.637	1.678	1.711	1.771	1.700	1.958	1.720	1.764	1.734	1.478
738																																																																																					1.599	1.780	1.647	1.686	1.718	1.777	1.705	1.964	1.726	1.770	1.739	1.482
739																																																																																					1.606	1.790	1.656	1.695	1.725	1.783	1.710	1.969	1.732	1.775	1.744	1.486
740																																																																																					1.613	1.802	1.666	1.703	1.732	1.789	1.715	1.974	1.737	1.780	1.748	1.490
741																																																																																					1.619	1.811	1.674	1.710	1.737	1.795	1.718	1.977	1.741	1.783	1.752	1.493
742																																																																																					1.625	1.820	1.682	1.716	1.742	1.799	1.722	1.981	1.744	1.787	1.754	1.495
743																																																																																					1.629	1.829	1.689	1.722	1.746	1.802	1.724	1.982	1.748	1.789	1.757	1.497
744																																																																																					1.634	1.836	1.697	1.728	1.751	1.806	1.727	1.985	1.750	1.792	1.759	1.499
745																																																																																					1.638	1.845	1.703	1.733	1.754	1.809	1.729	1.987	1.752	1.793	1.760	1.500
746																																																																																					1.642	1.852	1.709	1.737	1.757	1.812	1.730	1.988	1.754	1.794	1.761	1.500
747																																																																																					1.645	1.858	1.714	1.742	1.760	1.813	1.731	1.989	1.754	1.795	1.761	1.501
748																																																																																					1.648	1.865	1.720	1.746	1.762	1.815	1.732	1.988	1.755	1.796	1.761	1.501
749																																																																																					1.651	1.871	1.724	1.748	1.764	1.816	1.732	1.988	1.755	1.795	1.760	1.500
750																																																																																					1.653	1.875	1.728	1.751	1.766	1.817	1.732	1.987	1.754	1.794	1.759	1.498
751																																																																																					1.654	1.880	1.731	1.753	1.766	1.817	1.731	1.985	1.754	1.792	1.757	1.497
752																																																																																					1.655	1.883	1.735	1.755	1.766	1.817	1.730	1.984	1.752	1.790	1.755	1.495
753																																																																																					1.656	1.887	1.738	1.756	1.767	1.816	1.728	1.981	1.750	1.788	1.753	1.493
754																																																																																					1.656	1.890	1.740	1.757	1.766	1.815	1.726	1.979	1.748	1.785	1.750	1.491
755																																																																																					1.656	1.893	1.742	1.758	1.765	1.813	1.724	1.975	1.745	1.782	1.747	1.488
756																																																																																					1.655	1.895	1.744	1.758	1.764	1.811	1.721	1.971	1.742	1.779	1.743	1.484
757																																																																																					1.654	1.897	1.744	1.757	1.762	1.808	1.718	1.966	1.738	1.775	1.739	1.481
758																																																																																					1.653	1.898	1.746	1.756	1.760	1.806	1.714	1.962	1.734	1.771	1.735	1.477
759																																																																																					1.651	1.899	1.745	1.755	1.757	1.802	1.710	1.957	1.730	1.766	1.730	1.472
760																																																																																					1.649	1.899	1.745	1.754	1.754	1.799	1.706	1.952	1.725	1.761	1.724	1.468
761																																																																																					1.646	1.899	1.743	1.751	1.750	1.793	1.701	1.944	1.719	1.755	1.718	1.462
762																																																																																					1.642	1.898	1.742	1.748	1.746	1.788	1.695	1.938	1.713	1.748	1.711	1.456
763																																																																																					1.639	1.897	1.741	1.745	1.742	1.784	1.690	1.931	1.707	1.742	1.705	1.451
764																																																																																					1.635	1.895	1.739	1.742	1.737	1.779	1.684	1.923	1.701	1.736	1.698	1.446
765																																																																																					1.632	1.894	1.737	1.739	1.733	1.774	1.679	1.917	1.696	1.730	1.693	1.442
766																																																																																					1.629	1.892	1.735	1.736	1.729	1.769	1.673	1.911	1.690	1.724	1.687	1.436
767																																																																																					1.624	1.889	1.732	1.731	1.723	1.763	1.667	1.903	1.681	1.717	1.678	1.430
768																																																																																					1.619	1.885	1.728	1.726	1.716	1.756	1.659	1.893	1.674	1.708	1.670	1.423
769																																																																																					1.613	1.881	1.723	1.721	1.710	1.748	1.651	1.884	1.666	1.700	1.661	1.415
770																																																																																					1.607	1.877	1.719	1.715	1.703	1.740	1.644	1.875	1.658	1.692	1.653	1.408
771																																																																																					1.601	1.872	1.715	1.710	1.697	1.734	1.637	1.865	1.650	1.684	1.645	1.402
772																																																																																					1.596	1.868	1.710	1.703	1.689	1.726	1.628	1.855	1.641	1.676	1.636	1.395
773																																																																																					1.589	1.862	1.704	1.697	1.682	1.717	1.619	1.845	1.632	1.666	1.627	1.387
774																																																																																					1.582	1.857	1.699	1.690	1.674	1.708	1.611	1.835	1.623	1.657	1.617	1.379
775																																																																																					1.574	1.851	1.693	1.683	1.666	1.700	1.602	1.823	1.613	1.648	1.608	1.371
776																																																																																					1.567	1.843	1.687	1.675	1.658	1.691	1.592	1.813	1.604	1.639	1.598	1.363
777																																																																																					1.560	1.839	1.681	1.669	1.650	1.682	1.584	1.802	1.595	1.630	1.588	1.356
778																																																																																					1.552	1.831	1.674	1.660	1.641	1.672	1.574	1.790	1.584	1.619	1.578	1.347
779																																																																																					1.544	1.823	1.667	1.652	1.631	1.663	1.564	1.778	1.574	1.609	1.568	1.338
780																																																																																					1.536	1.816	1.659	1.644	1.622	1.653	1.554	1.767	1.563	1.599	1.557	1.330
781																																																																																					1.527	1.808	1.652	1.635	1.613	1.643	1.544	1.754	1.553	1.588	1.546	1.321
782																																																																																					1.517	1.798	1.643	1.625	1.601	1.631	1.533	1.740	1.540	1.577	1.534	1.312
783																																																																																					1.509	1.790	1.635	1.616	1.591	1.620	1.522	1.728	1.530	1.566	1.523	1.303
784																																																																																					1.499	1.781	1.626	1.607	1.581	1.610	1.511	1.715	1.519	1.555	1.512	1.292
785																																																																																					1.489	1.771	1.617	1.596	1.570	1.597	1.500	1.701	1.507	1.543	1.500	1.283
786																																																																																					1.478	1.761	1.607	1.586	1.559	1.586	1.488	1.687	1.496	1.531	1.487	1.273
787																																																																																					1.468	1.752	1.598	1.576	1.548	1.574	1.476	1.673	1.484	1.520	1.475	1.263
788																																																																																					1.458	1.741	1.588	1.565	1.536	1.562	1.464	1.660	1.471	1.508	1.464	1.254
789																																																																																					1.449	1.732	1.579	1.556	1.526	1.551	1.454	1.647	1.460	1.496	1.452	1.245
790																																																																																					1.439	1.722	1.570	1.545	1.515	1.539	1.443	1.634	1.449	1.485	1.441	1.235
791																																																																																					1.429	1.711	1.560	1.535	1.504	1.528	1.431	1.619	1.438	1.474	1.429	1.226
792																																																																																					1.417	1.700	1.550	1.523	1.492	1.515	1.419	1.605	1.425	1.461	1.416	1.215
793																																																																																					1.407	1.688	1.539	1.512	1.480	1.502	1.407	1.591	1.412	1.449	1.403	1.205
794																																																																																					1.395	1.677	1.528	1.501	1.468	1.490	1.395	1.577	1.400	1.437	1.391	1.194
795																																																																																					1.384	1.664	1.517	1.489	1.456	1.477	1.382	1.562	1.387	1.424	1.378	1.184
796																																																																																					1.372	1.653	1.505	1.476	1.443	1.463	1.368	1.547	1.373	1.410	1.364	1.173
797																																																																																					1.361	1.641	1.494	1.465	1.430	1.450	1.357	1.532	1.361	1.398	1.352	1.163
798																																																																																					1.350	1.629	1.483	1.454	1.418	1.438	1.345	1.517	1.349	1.386	1.339	1.153
799																																																																																					1.339	1.617	1.472	1.441	1.406	1.425	1.332	1.502	1.336	1.373	1.326	1.142
800																																																																																					1.327	1.605	1.460	1.429	1.394	1.411	1.319	1.488	1.324	1.360	1.315	1.131
801																																																																																					1.314	1.590	1.447	1.416	1.381	1.398	1.306	1.473	1.311	1.347	1.300	1.120
802																																																																																					1.304	1.578	1.436	1.405	1.368	1.385	1.294	1.459	1.298	1.335	1.289	1.110
803																																																																																					1.292	1.566	1.424	1.393	1.356	1.372	1.281	1.444	1.286	1.322	1.276	1.100
804																																																																																					1.281	1.554	1.413	1.381	1.343	1.359	1.269	1.428	1.273	1.310	1.263	1.089
805																																																																																					1.268	1.540	1.401	1.368	1.331	1.345	1.255	1.414	1.260	1.296	1.250	1.078
806																																																																																					1.257	1.528	1.389	1.356	1.318	1.333	1.244	1.400	1.249	1.284	1.238	1.068
807																																																																																					1.245	1.515	1.377	1.343	1.305	1.320	1.231	1.385	1.236	1.271	1.226	1.057
808																																																																																					1.233	1.502	1.364	1.330	1.291	1.306	1.217	1.369	1.223	1.259	1.213	1.046
809																																																																																					1.221	1.488	1.352	1.318	1.279	1.293	1.205	1.355	1.211	1.246	1.200	1.036
810																																																																																					1.210	1.476	1.340	1.306	1.267	1.280	1.193	1.341	1.199	1.234	1.188	1.026
811																																																																																					1.198	1.462	1.328	1.293	1.254	1.266	1.179	1.325	1.186	1.221	1.175	1.016
812																																																																																					1.186	1.448	1.316	1.280	1.241	1.253	1.167	1.311	1.174	1.208	1.163	1.005
813																																																																																					1.173	1.435	1.302	1.267	1.227	1.240	1.154	1.295	1.161	1.195	1.150	0.994
814																																																																																					1.162	1.421	1.290	1.255	1.215	1.227	1.142	1.281	1.149	1.183	1.138	0.984
815																																																																																					1.149	1.407	1.277	1.241	1.202	1.212	1.128	1.266	1.136	1.170	1.125	0.973
816																																																																																					1.137	1.393	1.264	1.228	1.188	1.199	1.115	1.251	1.124	1.157	1.112	0.963
817																																																																																					1.125	1.380	1.252	1.215	1.175	1.186	1.103	1.237	1.112	1.145	1.101	0.952
818																																																																																					1.112	1.365	1.239	1.202	1.162	1.172	1.090	1.221	1.099	1.132	1.088	0.942
819																																																																																					1.097	1.347	1.222	1.185	1.146	1.155	1.074	1.203	1.083	1.117	1.073	0.929
820																																																																																					1.081	1.329	1.205	1.169	1.129	1.138	1.058	1.184	1.068	1.101	1.057	0.915
821																																																																																					1.066	1.312	1.190	1.153	1.113	1.122	1.043	1.167	1.054	1.086	1.043	0.903
822																																																																																					1.056	1.302	1.180	1.143	1.103	1.111	1.033	1.155	1.044	1.076	1.033	0.895
823																																																																																					1.050	1.294	1.173	1.136	1.095	1.103	1.026	1.147	1.037	1.069	1.026	0.889
824																																																																																					1.044	1.287	1.167	1.130	1.089	1.097	1.019	1.139	1.031	1.063	1.020	0.884
825																																																																																					1.036	1.278	1.157	1.120	1.080	1.087	1.010	1.129	1.022	1.054	1.012	0.877
826																																																																																					1.023	1.262	1.144	1.107	1.066	1.073	0.997	1.113	1.010	1.041	0.999	0.866
827																																																																																					1.008	1.245	1.128	1.091	1.050	1.057	0.982	1.096	0.995	1.026	0.985	0.854
828																																																																																					0.997	1.232	1.116	1.079	1.039	1.045	0.970	1.083	0.984	1.016	0.974	0.845
829																																																																																					0.989	1.222	1.107	1.070	1.029	1.035	0.961	1.072	0.976	1.007	0.966	0.838
830																																																																																					0.979	1.211	1.097	1.060	1.019	1.025	0.951	1.061	0.967	0.997	0.956	0.830
831																																																																																					0.967	1.196	1.083	1.046	1.006	1.011	0.939	1.046	0.955	0.985	0.945	0.820
832																																																																																					0.949	1.175	1.064	1.027	0.987	0.993	0.921	1.027	0.938	0.969	0.928	0.806
833																																																																																					0.936	1.160	1.050	1.013	0.974	0.978	0.908	1.011	0.925	0.955	0.915	0.795
834																																																																																					0.926	1.149	1.040	1.003	0.964	0.968	0.898	1.000	0.916	0.946	0.906	0.787
835																																																																																					0.919	1.139	1.031	0.995	0.955	0.959	0.890	0.990	0.908	0.938	0.899	0.781
836																																																																																					0.910	1.130	1.022	0.986	0.946	0.950	0.881	0.980	0.900	0.930	0.891	0.774
837																																																																																					0.901	1.118	1.012	0.975	0.936	0.939	0.871	0.969	0.891	0.920	0.881	0.766
838																																																																																					0.886	1.100	0.995	0.959	0.920	0.923	0.856	0.952	0.877	0.906	0.868	0.754
839																																																																																					0.873	1.084	0.981	0.945	0.906	0.909	0.843	0.937	0.865	0.893	0.855	0.744
840																																																																																					0.862	1.072	0.969	0.933	0.894	0.898	0.832	0.924	0.855	0.883	0.845	0.735
841																																																																																					0.853	1.060	0.959	0.923	0.885	0.887	0.823	0.913	0.845	0.874	0.836	0.728
842																																																																																					0.843	1.050	0.949	0.913	0.875	0.877	0.813	0.903	0.836	0.865	0.828	0.720
843																																																																																					0.833	1.037	0.937	0.902	0.864	0.866	0.802	0.891	0.827	0.855	0.818	0.712
844																																																																																					0.822	1.024	0.925	0.890	0.852	0.854	0.792	0.878	0.816	0.845	0.807	0.704
845																																																																																					0.811	1.010	0.912	0.878	0.841	0.842	0.780	0.865	0.806	0.834	0.797	0.695
846																																																																																					0.800	0.997	0.900	0.866	0.829	0.830	0.769	0.852	0.795	0.823	0.787	0.686
847																																																																																					0.789	0.984	0.889	0.855	0.818	0.819	0.759	0.840	0.786	0.813	0.777	0.678
848																																																																																					0.780	0.973	0.879	0.845	0.808	0.809	0.750	0.830	0.777	0.804	0.769	0.670
849																																																																																					0.771	0.962	0.869	0.835	0.798	0.799	0.740	0.819	0.768	0.795	0.760	0.663
850																																																																																					0.762	0.950	0.858	0.825	0.789	0.789	0.730	0.808	0.759	0.786	0.752	0.655
851																																																																																					0.752	0.939	0.847	0.814	0.778	0.778	0.721	0.797	0.750	0.777	0.742	0.648
852																																																																																					0.742	0.926	0.837	0.804	0.768	0.768	0.711	0.787	0.741	0.768	0.733	0.640
853																																																																																					0.733	0.915	0.827	0.794	0.758	0.758	0.702	0.776	0.732	0.759	0.725	0.633
854																																																																																					0.723	0.903	0.815	0.782	0.747	0.747	0.691	0.764	0.723	0.749	0.715	0.625
855																																																																																					0.713	0.892	0.804	0.772	0.737	0.738	0.683	0.754	0.714	0.740	0.707	0.618
856																																																																																					0.704	0.880	0.794	0.762	0.728	0.727	0.673	0.743	0.705	0.731	0.698	0.610
857																																																																																					0.695	0.869	0.784	0.752	0.718	0.717	0.664	0.733	0.697	0.723	0.690	0.603
858																																																																																					0.686	0.858	0.774	0.743	0.708	0.707	0.655	0.723	0.688	0.714	0.681	0.596
859																																																																																					0.678	0.848	0.764	0.733	0.700	0.698	0.647	0.713	0.680	0.706	0.673	0.589
860																																																																																					0.670	0.837	0.755	0.724	0.691	0.689	0.639	0.704	0.673	0.698	0.666	0.583
861																																																																																					0.661	0.827	0.746	0.715	0.682	0.681	0.630	0.695	0.665	0.690	0.658	0.577
862																																																																																					0.653	0.817	0.737	0.706	0.673	0.672	0.622	0.685	0.657	0.682	0.650	0.570
863																																																																																					0.645	0.806	0.728	0.697	0.664	0.663	0.614	0.675	0.649	0.674	0.642	0.564
864																																																																																					0.636	0.796	0.718	0.689	0.656	0.654	0.606	0.667	0.642	0.667	0.635	0.557
865																																																																																					0.629	0.786	0.710	0.680	0.648	0.646	0.599	0.658	0.634	0.659	0.628	0.551
866																																																																																					0.620	0.776	0.701	0.672	0.639	0.638	0.591	0.649	0.627	0.651	0.621	0.545
867																																																																																					0.614	0.768	0.692	0.663	0.632	0.630	0.584	0.641	0.620	0.645	0.614	0.539
868																																																																																					0.605	0.756	0.683	0.654	0.622	0.621	0.575	0.631	0.612	0.636	0.606	0.532
869																																																																																					0.597	0.747	0.674	0.646	0.614	0.612	0.568	0.623	0.605	0.629	0.599	0.526
870																																																																																					0.591	0.739	0.666	0.638	0.607	0.606	0.561	0.615	0.599	0.623	0.592	0.521
871																																																																																					0.583	0.730	0.658	0.631	0.600	0.598	0.554	0.607	0.592	0.616	0.586	0.515
872																																																																																					0.577	0.721	0.651	0.623	0.592	0.591	0.547	0.600	0.586	0.609	0.580	0.510
873																																																																																					0.570	0.712	0.643	0.616	0.585	0.583	0.541	0.592	0.579	0.603	0.573	0.505
874																																																																																					0.563	0.703	0.635	0.608	0.577	0.576	0.534	0.584	0.573	0.596	0.567	0.499
875																																																																																					0.555	0.693	0.626	0.599	0.569	0.567	0.526	0.575	0.565	0.589	0.559	0.493
876																																																																																					0.548	0.684	0.618	0.591	0.561	0.559	0.519	0.567	0.559	0.581	0.552	0.487
877																																																																																					0.540	0.675	0.609	0.583	0.554	0.552	0.512	0.559	0.552	0.575	0.546	0.482
878																																																																																					0.531	0.663	0.599	0.573	0.544	0.542	0.503	0.550	0.543	0.566	0.537	0.474
879																																																																																					0.521	0.651	0.588	0.563	0.535	0.532	0.494	0.539	0.535	0.557	0.529	0.467
880																																																																																					0.513	0.642	0.579	0.555	0.527	0.524	0.487	0.531	0.527	0.549	0.522	0.460
881																																																																																					0.509	0.637	0.574	0.549	0.522	0.519	0.482	0.526	0.523	0.544	0.518	0.457
882																																																																																					0.506	0.632	0.570	0.545	0.518	0.515	0.478	0.522	0.519	0.540	0.514	0.453
883																																																																																					0.502	0.628	0.566	0.542	0.514	0.511	0.475	0.518	0.516	0.537	0.511	0.451
884																																																																																					0.499	0.624	0.562	0.537	0.510	0.507	0.471	0.514	0.512	0.533	0.507	0.448
885																																																																																					0.493	0.616	0.555	0.531	0.504	0.501	0.465	0.507	0.506	0.527	0.502	0.443
886																																																																																					0.484	0.606	0.545	0.522	0.495	0.492	0.457	0.498	0.499	0.519	0.494	0.436
887																																																																																					0.477	0.597	0.537	0.514	0.488	0.485	0.450	0.491	0.492	0.512	0.487	0.430
888																																																																																					0.470	0.588	0.529	0.506	0.481	0.477	0.443	0.483	0.485	0.506	0.481	0.425
889																																																																																					0.464	0.580	0.522	0.500	0.474	0.471	0.437	0.477	0.480	0.500	0.475	0.420
890																																																																																					0.458	0.572	0.515	0.493	0.468	0.464	0.431	0.470	0.474	0.493	0.469	0.415
891																																																																																					0.451	0.564	0.508	0.486	0.461	0.458	0.425	0.463	0.468	0.488	0.464	0.409
892																																																																																					0.444	0.555	0.500	0.478	0.454	0.450	0.419	0.456	0.462	0.481	0.457	0.404
893																																																																																					0.438	0.547	0.492	0.471	0.447	0.444	0.413	0.449	0.455	0.475	0.451	0.399
894																																																																																					0.432	0.539	0.485	0.465	0.441	0.437	0.407	0.443	0.450	0.469	0.446	0.394
895																																																																																					0.428	0.535	0.481	0.461	0.437	0.433	0.403	0.438	0.446	0.465	0.442	0.391
896																																																																																					0.425	0.531	0.477	0.457	0.434	0.430	0.400	0.435	0.443	0.461	0.439	0.388
897																																																																																					0.421	0.526	0.473	0.452	0.430	0.426	0.396	0.431	0.439	0.458	0.435	0.385
898																																																																																					0.417	0.521	0.468	0.448	0.425	0.421	0.392	0.426	0.435	0.453	0.431	0.382
899																																																																																					0.410	0.512	0.461	0.441	0.418	0.415	0.386	0.419	0.429	0.447	0.426	0.377
900																																																																																					0.405	0.505	0.454	0.435	0.413	0.409	0.381	0.413	0.424	0.442	0.420	0.372
901																																																																																					0.398	0.497	0.447	0.428	0.406	0.402	0.375	0.407	0.418	0.436	0.415	0.367
902																																																																																					0.392	0.489	0.440	0.422	0.400	0.396	0.369	0.401	0.413	0.430	0.409	0.362
903																																																																																					0.387	0.482	0.434	0.416	0.395	0.391	0.364	0.395	0.408	0.425	0.404	0.358
904																																																																																					0.384	0.478	0.430	0.412	0.392	0.387	0.361	0.392	0.405	0.421	0.401	0.356
905																																																																																					0.382	0.475	0.427	0.409	0.389	0.385	0.358	0.389	0.402	0.419	0.399	0.353
906																																																																																					0.379	0.472	0.424	0.406	0.386	0.382	0.356	0.386	0.399	0.416	0.396	0.351
907																																																																																					0.376	0.468	0.420	0.402	0.382	0.378	0.353	0.382	0.396	0.412	0.393	0.348
908																																																																																					0.371	0.461	0.414	0.397	0.377	0.373	0.348	0.377	0.392	0.408	0.389	0.344
909																																																																																					0.365	0.454	0.408	0.391	0.372	0.367	0.343	0.371	0.386	0.403	0.383	0.340
910																																																																																					0.360	0.448	0.403	0.386	0.366	0.362	0.339	0.366	0.382	0.398	0.379	0.336
911																																																																																					0.356	0.442	0.398	0.382	0.362	0.358	0.335	0.362	0.378	0.394	0.375	0.333
912																																																																																					0.352	0.436	0.392	0.377	0.358	0.353	0.331	0.357	0.374	0.389	0.370	0.329
913																																																																																					0.346	0.429	0.387	0.371	0.352	0.348	0.326	0.352	0.369	0.385	0.366	0.326
914																																																																																					0.341	0.423	0.381	0.366	0.348	0.344	0.322	0.347	0.365	0.380	0.362	0.322
915																																																																																					0.339	0.419	0.378	0.363	0.345	0.341	0.319	0.344	0.362	0.377	0.359	0.319
916																																																																																					0.337	0.417	0.375	0.360	0.343	0.339	0.317	0.342	0.360	0.375	0.357	0.318
917																																																																																					0.336	0.416	0.374	0.358	0.341	0.337	0.315	0.340	0.358	0.373	0.356	0.316
918																																																																																					0.334	0.413	0.371	0.356	0.339	0.335	0.314	0.338	0.356	0.371	0.354	0.315
919																																																																																					0.332	0.410	0.368	0.353	0.336	0.333	0.312	0.336	0.354	0.369	0.351	0.313
920																																																																																					0.328	0.405	0.364	0.349	0.333	0.329	0.308	0.332	0.351	0.365	0.348	0.310
921																																																																																					0.325	0.400	0.360	0.346	0.329	0.325	0.305	0.328	0.347	0.361	0.345	0.307
922																																																																																					0.322	0.396	0.356	0.343	0.326	0.322	0.302	0.326	0.344	0.358	0.342	0.305
923																																																																																					0.319	0.392	0.353	0.339	0.323	0.319	0.300	0.323	0.342	0.356	0.340	0.303
924																																																																																					0.316	0.389	0.350	0.337	0.321	0.317	0.297	0.321	0.340	0.353	0.337	0.301
925																																																																																					0.314	0.385	0.347	0.334	0.318	0.314	0.295	0.318	0.337	0.351	0.335	0.299
926																																																																																					0.311	0.382	0.344	0.331	0.316	0.312	0.293	0.316	0.335	0.349	0.333	0.297
927																																																																																					0.309	0.379	0.342	0.329	0.314	0.310	0.291	0.314	0.333	0.347	0.331	0.296
928																																																																																					0.308	0.377	0.339	0.327	0.311	0.308	0.290	0.312	0.331	0.345	0.330	0.294
929																																																																																					0.306	0.374	0.337	0.325	0.310	0.306	0.288	0.310	0.330	0.343	0.328	0.293
930																																																																																					0.304	0.371	0.335	0.323	0.308	0.305	0.286	0.309	0.328	0.341	0.326	0.292
931																																																																																					0.302	0.369	0.333	0.321	0.306	0.303	0.285	0.308	0.327	0.340	0.325	0.291
932																																																																																					0.301	0.367	0.331	0.320	0.305	0.302	0.284	0.306	0.326	0.339	0.324	0.290
933																																																																																					0.300	0.365	0.329	0.318	0.304	0.301	0.283	0.306	0.324	0.338	0.323	0.289
934																																																																																					0.298	0.363	0.327	0.316	0.302	0.300	0.282	0.304	0.323	0.337	0.322	0.288
935																																																																																					0.297	0.361	0.326	0.315	0.302	0.299	0.282	0.304	0.323	0.335	0.321	0.288
936																																																																																					0.296	0.360	0.324	0.314	0.300	0.298	0.281	0.303	0.322	0.335	0.320	0.287
937																																																																																					0.296	0.359	0.324	0.313	0.300	0.297	0.281	0.303	0.321	0.334	0.320	0.287
938																																																																																					0.295	0.358	0.322	0.312	0.300	0.297	0.280	0.303	0.321	0.334	0.320	0.286
939																																																																																					0.295	0.357	0.322	0.312	0.299	0.297	0.280	0.303	0.321	0.333	0.320	0.286
940																																																																																					0.295	0.356	0.321	0.311	0.299	0.296	0.280	0.303	0.320	0.333	0.319	0.286
941																																																																																					0.295	0.356	0.321	0.311	0.299	0.296	0.280	0.303	0.320	0.333	0.320	0.287
942																																																																																					0.294	0.355	0.320	0.311	0.299	0.296	0.281	0.303	0.320	0.333	0.320	0.287
943																																																																																					0.295	0.355	0.320	0.311	0.299	0.297	0.281	0.304	0.321	0.334	0.320	0.287
944																																																																																					0.295	0.355	0.320	0.311	0.300	0.298	0.282	0.305	0.321	0.334	0.321	0.288
945																																																																																					0.296	0.355	0.321	0.312	0.300	0.298	0.283	0.306	0.322	0.335	0.322	0.289
946																																																																																					0.297	0.356	0.321	0.313	0.302	0.300	0.284	0.308	0.323	0.336	0.323	0.290
947																																																																																					0.298	0.357	0.322	0.314	0.303	0.301	0.286	0.310	0.325	0.338	0.325	0.292
948																																																																																					0.300	0.358	0.324	0.316	0.305	0.303	0.288	0.313	0.327	0.340	0.327	0.294
949																																																																																					0.302	0.360	0.325	0.318	0.307	0.306	0.290	0.315	0.329	0.343	0.330	0.296
950																																																																																					0.304	0.362	0.327	0.319	0.309	0.308	0.292	0.318	0.332	0.345	0.332	0.299
951																																																																																					0.307	0.365	0.330	0.322	0.312	0.311	0.296	0.322	0.335	0.348	0.335	0.302
952																																																																																					0.309	0.367	0.332	0.324	0.315	0.314	0.298	0.325	0.337	0.351	0.338	0.304
953																																																																																					0.312	0.370	0.334	0.327	0.318	0.317	0.301	0.328	0.340	0.354	0.341	0.307
954																																																																																					0.315	0.373	0.337	0.330	0.321	0.321	0.305	0.333	0.344	0.357	0.345	0.310
955																																																																																					0.318	0.376	0.340	0.333	0.324	0.324	0.308	0.337	0.347	0.361	0.348	0.314
956																																																																																					0.321	0.379	0.343	0.336	0.327	0.328	0.311	0.341	0.350	0.364	0.352	0.317
957																																																																																					0.324	0.381	0.345	0.339	0.330	0.330	0.314	0.344	0.353	0.367	0.354	0.320
958																																																																																					0.326	0.382	0.346	0.340	0.332	0.332	0.316	0.346	0.355	0.369	0.357	0.322
959																																																																																					0.327	0.383	0.347	0.342	0.333	0.334	0.318	0.348	0.356	0.370	0.358	0.323
960																																																																																					0.328	0.384	0.348	0.342	0.334	0.335	0.319	0.349	0.357	0.371	0.359	0.324
961																																																																																					0.328	0.384	0.348	0.342	0.335	0.335	0.319	0.350	0.358	0.372	0.359	0.325
962																																																																																					0.328	0.383	0.347	0.342	0.334	0.335	0.320	0.350	0.358	0.372	0.360	0.325
963																																																																																					0.327	0.382	0.347	0.342	0.334	0.335	0.319	0.350	0.357	0.371	0.359	0.324
964																																																																																					0.327	0.381	0.346	0.341	0.333	0.335	0.319	0.350	0.357	0.371	0.359	0.324
965																																																																																					0.326	0.380	0.345	0.340	0.333	0.334	0.319	0.349	0.356	0.370	0.358	0.323
966																																																																																					0.325	0.379	0.344	0.339	0.332	0.333	0.318	0.348	0.355	0.369	0.357	0.322
967																																																																																					0.323	0.377	0.342	0.338	0.331	0.332	0.317	0.347	0.354	0.367	0.356	0.322
968																																																																																					0.322	0.375	0.341	0.337	0.329	0.331	0.316	0.347	0.353	0.366	0.355	0.321
969																																																																																					0.321	0.374	0.340	0.335	0.328	0.330	0.315	0.345	0.352	0.365	0.354	0.320
970																																																																																					0.320	0.372	0.338	0.334	0.327	0.329	0.314	0.344	0.350	0.364	0.352	0.319
971																																																																																					0.319	0.371	0.337	0.333	0.326	0.328	0.313	0.343	0.349	0.363	0.351	0.318
972																																																																																					0.318	0.369	0.335	0.331	0.325	0.326	0.312	0.342	0.348	0.361	0.350	0.316
973																																																																																					0.316	0.367	0.334	0.330	0.323	0.325	0.311	0.341	0.346	0.360	0.349	0.315
974																																																																																					0.315	0.365	0.332	0.328	0.322	0.323	0.309	0.339	0.345	0.358	0.347	0.314
975																																																																																					0.312	0.362	0.330	0.326	0.320	0.321	0.307	0.337	0.343	0.356	0.345	0.312
976																																																																																					0.310	0.359	0.327	0.324	0.318	0.319	0.306	0.335	0.341	0.354	0.342	0.310
977																																																																																					0.308	0.356	0.325	0.322	0.315	0.317	0.304	0.333	0.338	0.351	0.341	0.308
978																																																																																					0.306	0.355	0.323	0.320	0.314	0.316	0.302	0.332	0.337	0.349	0.339	0.307
979																																																																																					0.306	0.354	0.322	0.319	0.313	0.315	0.301	0.331	0.336	0.348	0.338	0.306
980																																																																																					0.305	0.354	0.321	0.317	0.312	0.314	0.300	0.330	0.335	0.347	0.337	0.305
981																																																																																					0.305	0.353	0.320	0.316	0.311	0.313	0.300	0.329	0.334	0.347	0.336	0.304
982																																																																																					0.303	0.351	0.318	0.314	0.309	0.312	0.299	0.327	0.332	0.345	0.335	0.303
983																																																																																					0.301	0.348	0.316	0.312	0.307	0.309	0.297	0.325	0.330	0.343	0.333	0.301
984																																																																																					0.298	0.344	0.312	0.309	0.304	0.306	0.293	0.322	0.327	0.339	0.329	0.298
985																																																																																					0.294	0.340	0.309	0.306	0.301	0.302	0.290	0.318	0.323	0.335	0.325	0.295
986																																																																																					0.292	0.336	0.306	0.303	0.298	0.300	0.287	0.315	0.320	0.332	0.322	0.292
987																																																																																					0.288	0.332	0.303	0.300	0.295	0.297	0.285	0.312	0.317	0.329	0.319	0.289
988																																																																																					0.285	0.328	0.299	0.297	0.292	0.294	0.282	0.309	0.314	0.326	0.316	0.287
989																																																																																					0.281	0.324	0.296	0.294	0.289	0.290	0.279	0.305	0.310	0.322	0.312	0.283
990																																																																																					0.278	0.320	0.293	0.291	0.286	0.287	0.276	0.302	0.307	0.319	0.309	0.280
991																																																																																					0.277	0.319	0.291	0.289	0.284	0.286	0.274	0.301	0.306	0.317	0.307	0.279
992																																																																																					0.276	0.318	0.289	0.287	0.283	0.284	0.273	0.299	0.304	0.315	0.306	0.278
993																																																																																					0.276	0.317	0.288	0.285	0.282	0.283	0.272	0.298	0.303	0.314	0.305	0.277
994																																																																																					0.275	0.317	0.287	0.284	0.280	0.282	0.271	0.296	0.302	0.313	0.304	0.276
995																																																																																					0.273	0.314	0.285	0.281	0.278	0.280	0.270	0.294	0.300	0.311	0.302	0.274
996																																																																																					0.270	0.310	0.282	0.279	0.276	0.278	0.267	0.291	0.297	0.308	0.299	0.271
997																																																																																					0.267	0.306	0.278	0.275	0.272	0.274	0.263	0.288	0.293	0.304	0.295	0.268
998																																																																																					0.263	0.302	0.275	0.272	0.269	0.270	0.260	0.284	0.290	0.300	0.292	0.265
999																																																																																					0.260	0.298	0.271	0.269	0.265	0.267	0.257	0.281	0.286	0.297	0.288	0.262

结果
	1	2	3	4	5	6	7	8	9	10	11	12
A	?????	?????	?????	?????	?????	?????	?????	?????	?????	?????	?????	?????	Mean Max OD [Spectrum]
B	?????	?????	?????	?????	?????	?????	?????	?????	?????	?????	?????	?????	Mean Max OD [Spectrum]
C	?????	?????	?????	?????	?????	?????	?????	?????	?????	?????	?????	?????	Mean Max OD [Spectrum]
D	?????	?????	?????	?????	?????	?????	?????	?????	?????	?????	?????	?????	Mean Max OD [Spectrum]
E	?????	?????	?????	?????	?????	?????	?????	?????	?????	?????	?????	?????	Mean Max OD [Spectrum]
F	?????	?????	?????	?????	?????	?????	?????	?????	?????	?????	?????	?????	Mean Max OD [Spectrum]
G	?????	?????	?????	?????	?????	?????	?????	?????	?????	?????	?????	?????	Mean Max OD [Spectrum]
H	1.656	1.899	1.746	1.758	1.767	1.817	1.732	1.989	1.755	1.796	1.761	1.501	Mean Max OD [Spectrum]

