

软件版本	3.11.19



实验文件路径:	
方案文件路径:	



板编号	板 4
日期	2023/5/5
时间	10:45:41
检测仪类型:	Epoch 2
检测仪序列号:	2205170B
检测类型	检测仪

程序详细信息

板类型	96 WELL PLATE
完成后弹出板	
检测	吸收光 光谱
	H1..H12
	开始: 400 nm,  停止: 999 nm,  步骤: 1 nm
	检测前校准
	检测速度: 正常,  延迟: 100 msec,  测量值/数据点: 8

Spectrum

波长	A1	A2	A3	A4	A5	A6	A7	A8	A9	A10	A11	A12	B1	B2	B3	B4	B5	B6	B7	B8	B9	B10	B11	B12	C1	C2	C3	C4	C5	C6	C7	C8	C9	C10	C11	C12	D1	D2	D3	D4	D5	D6	D7	D8	D9	D10	D11	D12	E1	E2	E3	E4	E5	E6	E7	E8	E9	E10	E11	E12	F1	F2	F3	F4	F5	F6	F7	F8	F9	F10	F11	F12	G1	G2	G3	G4	G5	G6	G7	G8	G9	G10	G11	G12	H1	H2	H3	H4	H5	H6	H7	H8	H9	H10	H11	H12
400																																																																																					0.520	0.586	0.618	0.606	0.658	1.177	0.588	0.616	0.595	0.609	0.656	0.691
401																																																																																					0.519	0.584	0.617	0.604	0.657	1.175	0.587	0.614	0.593	0.608	0.654	0.689
402																																																																																					0.517	0.583	0.615	0.603	0.655	1.172	0.585	0.613	0.591	0.606	0.652	0.688
403																																																																																					0.516	0.581	0.614	0.601	0.654	1.170	0.583	0.611	0.590	0.604	0.651	0.686
404																																																																																					0.514	0.580	0.612	0.599	0.652	1.167	0.582	0.609	0.588	0.603	0.649	0.684
405																																																																																					0.513	0.578	0.611	0.598	0.650	1.165	0.581	0.608	0.587	0.601	0.648	0.682
406																																																																																					0.512	0.577	0.609	0.597	0.649	1.163	0.579	0.607	0.586	0.600	0.646	0.681
407																																																																																					0.511	0.576	0.608	0.595	0.648	1.161	0.578	0.605	0.584	0.599	0.645	0.679
408																																																																																					0.510	0.574	0.606	0.594	0.646	1.159	0.576	0.604	0.583	0.597	0.643	0.678
409																																																																																					0.509	0.573	0.605	0.592	0.645	1.157	0.575	0.602	0.581	0.596	0.642	0.676
410																																																																																					0.507	0.571	0.603	0.591	0.643	1.154	0.573	0.601	0.580	0.594	0.640	0.674
411																																																																																					0.506	0.570	0.602	0.589	0.642	1.152	0.572	0.599	0.578	0.593	0.638	0.673
412																																																																																					0.505	0.569	0.600	0.588	0.640	1.150	0.571	0.598	0.577	0.591	0.637	0.671
413																																																																																					0.504	0.567	0.599	0.586	0.639	1.148	0.569	0.596	0.576	0.590	0.635	0.670
414																																																																																					0.503	0.566	0.598	0.585	0.637	1.146	0.568	0.595	0.574	0.588	0.634	0.668
415																																																																																					0.501	0.565	0.596	0.584	0.636	1.144	0.567	0.593	0.573	0.587	0.632	0.667
416																																																																																					0.500	0.563	0.595	0.582	0.635	1.142	0.565	0.592	0.572	0.586	0.631	0.665
417																																																																																					0.499	0.562	0.594	0.581	0.633	1.140	0.564	0.591	0.570	0.584	0.629	0.664
418																																																																																					0.498	0.561	0.592	0.579	0.632	1.139	0.563	0.589	0.569	0.583	0.628	0.662
419																																																																																					0.497	0.559	0.591	0.578	0.630	1.137	0.561	0.588	0.567	0.581	0.626	0.660
420																																																																																					0.495	0.558	0.589	0.577	0.629	1.135	0.560	0.586	0.566	0.580	0.625	0.659
421																																																																																					0.495	0.557	0.588	0.575	0.628	1.134	0.559	0.585	0.565	0.579	0.624	0.658
422																																																																																					0.494	0.556	0.587	0.574	0.627	1.132	0.558	0.584	0.564	0.578	0.622	0.656
423																																																																																					0.493	0.555	0.586	0.573	0.626	1.131	0.557	0.583	0.563	0.577	0.621	0.655
424																																																																																					0.492	0.554	0.585	0.572	0.625	1.130	0.555	0.582	0.561	0.575	0.620	0.654
425																																																																																					0.491	0.553	0.584	0.571	0.624	1.128	0.554	0.581	0.560	0.574	0.619	0.652
426																																																																																					0.490	0.551	0.582	0.570	0.623	1.127	0.553	0.579	0.559	0.573	0.617	0.651
427																																																																																					0.489	0.550	0.581	0.568	0.621	1.125	0.552	0.578	0.558	0.572	0.616	0.650
428																																																																																					0.488	0.549	0.580	0.567	0.620	1.124	0.551	0.577	0.557	0.571	0.615	0.649
429																																																																																					0.487	0.548	0.579	0.566	0.619	1.123	0.550	0.576	0.556	0.570	0.614	0.647
430																																																																																					0.486	0.547	0.578	0.565	0.618	1.121	0.548	0.575	0.555	0.568	0.612	0.646
431																																																																																					0.485	0.546	0.576	0.564	0.617	1.120	0.547	0.573	0.553	0.567	0.611	0.644
432																																																																																					0.484	0.545	0.575	0.562	0.616	1.119	0.546	0.572	0.552	0.566	0.610	0.643
433																																																																																					0.483	0.544	0.574	0.561	0.614	1.117	0.545	0.571	0.551	0.565	0.608	0.642
434																																																																																					0.482	0.542	0.573	0.560	0.613	1.116	0.544	0.570	0.550	0.564	0.607	0.640
435																																																																																					0.481	0.541	0.572	0.559	0.612	1.115	0.543	0.569	0.549	0.563	0.606	0.639
436																																																																																					0.480	0.540	0.570	0.557	0.611	1.114	0.542	0.568	0.548	0.561	0.605	0.638
437																																																																																					0.479	0.539	0.569	0.556	0.610	1.113	0.541	0.566	0.546	0.560	0.603	0.636
438																																																																																					0.478	0.538	0.568	0.555	0.609	1.112	0.540	0.565	0.545	0.559	0.602	0.635
439																																																																																					0.477	0.537	0.567	0.554	0.608	1.111	0.539	0.564	0.544	0.558	0.601	0.634
440																																																																																					0.476	0.536	0.566	0.553	0.607	1.110	0.538	0.563	0.543	0.557	0.600	0.633
441																																																																																					0.475	0.535	0.565	0.551	0.606	1.110	0.537	0.562	0.542	0.556	0.599	0.631
442																																																																																					0.474	0.534	0.564	0.550	0.605	1.109	0.536	0.561	0.541	0.555	0.598	0.630
443																																																																																					0.474	0.533	0.563	0.549	0.604	1.109	0.535	0.560	0.540	0.554	0.597	0.629
444																																																																																					0.473	0.532	0.562	0.548	0.604	1.108	0.534	0.559	0.539	0.553	0.596	0.628
445																																																																																					0.472	0.531	0.560	0.547	0.603	1.107	0.533	0.558	0.538	0.552	0.595	0.627
446																																																																																					0.471	0.530	0.559	0.546	0.602	1.107	0.532	0.557	0.537	0.551	0.594	0.626
447																																																																																					0.470	0.529	0.558	0.545	0.601	1.107	0.531	0.556	0.537	0.550	0.593	0.625
448																																																																																					0.470	0.529	0.557	0.544	0.600	1.107	0.530	0.555	0.536	0.549	0.592	0.624
449																																																																																					0.469	0.528	0.557	0.543	0.600	1.107	0.529	0.554	0.535	0.548	0.591	0.623
450																																																																																					0.468	0.527	0.556	0.542	0.599	1.107	0.529	0.553	0.534	0.547	0.590	0.622
451																																																																																					0.468	0.526	0.554	0.541	0.598	1.107	0.528	0.552	0.533	0.546	0.589	0.621
452																																																																																					0.467	0.525	0.554	0.540	0.598	1.107	0.527	0.551	0.532	0.546	0.588	0.620
453																																																																																					0.466	0.524	0.553	0.539	0.597	1.108	0.526	0.551	0.531	0.545	0.587	0.619
454																																																																																					0.466	0.524	0.552	0.538	0.596	1.108	0.525	0.550	0.531	0.544	0.586	0.618
455																																																																																					0.465	0.523	0.551	0.538	0.596	1.109	0.525	0.549	0.530	0.543	0.585	0.617
456																																																																																					0.464	0.522	0.550	0.537	0.595	1.110	0.524	0.548	0.529	0.542	0.584	0.616
457																																																																																					0.464	0.521	0.549	0.536	0.595	1.110	0.523	0.547	0.528	0.542	0.584	0.615
458																																																																																					0.463	0.521	0.549	0.535	0.594	1.111	0.523	0.547	0.528	0.541	0.583	0.615
459																																																																																					0.463	0.520	0.548	0.534	0.594	1.112	0.522	0.546	0.527	0.540	0.582	0.614
460																																																																																					0.462	0.520	0.548	0.534	0.594	1.113	0.522	0.546	0.527	0.540	0.582	0.613
461																																																																																					0.462	0.519	0.547	0.533	0.594	1.115	0.521	0.545	0.526	0.540	0.581	0.613
462																																																																																					0.462	0.519	0.547	0.533	0.594	1.116	0.521	0.545	0.526	0.539	0.581	0.613
463																																																																																					0.462	0.519	0.546	0.532	0.594	1.118	0.520	0.545	0.526	0.539	0.581	0.612
464																																																																																					0.461	0.518	0.546	0.532	0.594	1.120	0.520	0.544	0.525	0.538	0.580	0.612
465																																																																																					0.461	0.518	0.546	0.531	0.594	1.122	0.520	0.544	0.525	0.538	0.580	0.612
466																																																																																					0.461	0.518	0.545	0.531	0.594	1.125	0.520	0.544	0.525	0.538	0.579	0.611
467																																																																																					0.461	0.518	0.545	0.530	0.594	1.127	0.519	0.543	0.525	0.538	0.579	0.611
468																																																																																					0.461	0.518	0.545	0.530	0.594	1.129	0.519	0.543	0.525	0.538	0.579	0.611
469																																																																																					0.461	0.518	0.545	0.530	0.595	1.133	0.519	0.543	0.525	0.537	0.579	0.611
470																																																																																					0.461	0.518	0.545	0.530	0.595	1.136	0.519	0.543	0.525	0.537	0.579	0.611
471																																																																																					0.461	0.518	0.545	0.530	0.596	1.139	0.520	0.544	0.525	0.538	0.580	0.612
472																																																																																					0.461	0.518	0.545	0.530	0.597	1.143	0.520	0.544	0.525	0.538	0.580	0.612
473																																																																																					0.462	0.519	0.546	0.530	0.598	1.148	0.520	0.544	0.526	0.538	0.580	0.613
474																																																																																					0.462	0.519	0.546	0.531	0.599	1.153	0.521	0.545	0.526	0.539	0.581	0.613
475																																																																																					0.463	0.520	0.547	0.531	0.600	1.158	0.521	0.546	0.527	0.539	0.582	0.614
476																																																																																					0.464	0.521	0.547	0.532	0.602	1.164	0.522	0.547	0.528	0.540	0.583	0.615
477																																																																																					0.464	0.521	0.548	0.532	0.603	1.169	0.523	0.547	0.528	0.541	0.584	0.616
478																																																																																					0.465	0.522	0.549	0.533	0.605	1.176	0.524	0.549	0.530	0.542	0.585	0.617
479																																																																																					0.466	0.524	0.551	0.534	0.607	1.183	0.526	0.550	0.531	0.543	0.586	0.619
480																																																																																					0.468	0.525	0.552	0.536	0.609	1.192	0.527	0.552	0.533	0.545	0.588	0.621
481																																																																																					0.469	0.527	0.554	0.537	0.612	1.202	0.529	0.554	0.534	0.547	0.590	0.623
482																																																																																					0.471	0.529	0.557	0.539	0.616	1.213	0.531	0.556	0.537	0.549	0.593	0.626
483																																																																																					0.473	0.531	0.559	0.541	0.618	1.223	0.533	0.558	0.539	0.551	0.595	0.628
484																																																																																					0.475	0.533	0.560	0.543	0.621	1.232	0.535	0.560	0.541	0.553	0.597	0.630
485																																																																																					0.477	0.535	0.563	0.545	0.624	1.240	0.537	0.562	0.543	0.555	0.600	0.633
486																																																																																					0.479	0.537	0.565	0.547	0.627	1.250	0.539	0.565	0.545	0.557	0.602	0.635
487																																																																																					0.481	0.541	0.568	0.550	0.632	1.265	0.542	0.568	0.548	0.561	0.606	0.639
488																																																																																					0.484	0.544	0.571	0.553	0.636	1.279	0.545	0.571	0.551	0.564	0.609	0.643
489																																																																																					0.487	0.547	0.574	0.556	0.640	1.292	0.548	0.575	0.554	0.567	0.613	0.647
490																																																																																					0.490	0.550	0.579	0.559	0.645	1.308	0.552	0.578	0.558	0.571	0.617	0.651
491																																																																																					0.494	0.555	0.583	0.564	0.652	1.328	0.556	0.583	0.563	0.575	0.622	0.657
492																																																																																					0.497	0.558	0.587	0.567	0.657	1.345	0.560	0.587	0.567	0.579	0.626	0.661
493																																																																																					0.501	0.562	0.591	0.571	0.662	1.361	0.564	0.591	0.570	0.583	0.631	0.666
494																																																																																					0.505	0.566	0.595	0.575	0.669	1.380	0.568	0.596	0.575	0.587	0.636	0.671
495																																																																																					0.509	0.571	0.600	0.579	0.675	1.400	0.572	0.600	0.579	0.592	0.641	0.676
496																																																																																					0.514	0.576	0.606	0.584	0.683	1.427	0.578	0.606	0.585	0.598	0.647	0.683
497																																																																																					0.518	0.581	0.611	0.589	0.690	1.452	0.583	0.611	0.590	0.603	0.653	0.689
498																																																																																					0.523	0.586	0.616	0.593	0.698	1.475	0.587	0.617	0.595	0.608	0.659	0.695
499																																																																																					0.526	0.590	0.620	0.597	0.704	1.496	0.591	0.621	0.599	0.612	0.663	0.700
500																																																																																					0.531	0.594	0.625	0.601	0.711	1.520	0.596	0.626	0.604	0.617	0.669	0.706
501																																																																																					0.535	0.599	0.630	0.605	0.719	1.547	0.600	0.631	0.609	0.622	0.674	0.711
502																																																																																					0.539	0.603	0.634	0.610	0.727	1.575	0.605	0.636	0.613	0.627	0.680	0.717
503																																																																																					0.543	0.607	0.639	0.613	0.734	1.600	0.609	0.640	0.617	0.631	0.684	0.722
504																																																																																					0.547	0.612	0.643	0.617	0.742	1.630	0.613	0.644	0.622	0.635	0.690	0.727
505																																																																																					0.550	0.615	0.646	0.620	0.748	1.653	0.616	0.648	0.625	0.639	0.693	0.731
506																																																																																					0.553	0.618	0.650	0.623	0.755	1.681	0.619	0.651	0.628	0.642	0.697	0.735
507																																																																																					0.556	0.621	0.652	0.625	0.762	1.709	0.622	0.654	0.631	0.645	0.701	0.738
508																																																																																					0.558	0.623	0.655	0.627	0.768	1.737	0.624	0.657	0.634	0.648	0.704	0.741
509																																																																																					0.560	0.625	0.657	0.628	0.774	1.765	0.626	0.659	0.636	0.650	0.706	0.744
510																																																																																					0.562	0.627	0.658	0.629	0.781	1.794	0.628	0.661	0.638	0.652	0.708	0.746
511																																																																																					0.563	0.628	0.659	0.629	0.786	1.821	0.628	0.662	0.639	0.653	0.709	0.747
512																																																																																					0.564	0.628	0.659	0.629	0.791	1.847	0.629	0.662	0.639	0.653	0.710	0.748
513																																																																																					0.564	0.628	0.659	0.628	0.795	1.870	0.629	0.662	0.639	0.653	0.710	0.747
514																																																																																					0.564	0.628	0.658	0.627	0.799	1.891	0.628	0.662	0.639	0.653	0.709	0.747
515																																																																																					0.563	0.627	0.657	0.626	0.802	1.913	0.627	0.660	0.638	0.652	0.708	0.746
516																																																																																					0.562	0.625	0.655	0.624	0.806	1.935	0.625	0.659	0.636	0.650	0.707	0.744
517																																																																																					0.560	0.623	0.653	0.621	0.809	1.958	0.623	0.657	0.634	0.648	0.704	0.741
518																																																																																					0.558	0.621	0.650	0.618	0.811	1.976	0.621	0.654	0.632	0.645	0.702	0.738
519																																																																																					0.556	0.618	0.647	0.615	0.813	1.995	0.618	0.651	0.629	0.642	0.699	0.735
520																																																																																					0.554	0.616	0.644	0.613	0.815	2.010	0.615	0.648	0.626	0.640	0.696	0.732
521																																																																																					0.551	0.612	0.640	0.609	0.816	2.026	0.612	0.645	0.623	0.636	0.692	0.727
522																																																																																					0.548	0.609	0.636	0.605	0.818	2.042	0.608	0.640	0.619	0.632	0.687	0.723
523																																																																																					0.544	0.604	0.631	0.600	0.819	2.057	0.604	0.636	0.615	0.627	0.682	0.717
524																																																																																					0.540	0.600	0.627	0.596	0.819	2.070	0.599	0.631	0.610	0.622	0.677	0.712
525																																																																																					0.537	0.595	0.622	0.592	0.820	2.080	0.595	0.626	0.606	0.618	0.672	0.706
526																																																																																					0.532	0.591	0.617	0.587	0.820	2.091	0.590	0.621	0.601	0.613	0.666	0.700
527																																																																																					0.528	0.586	0.612	0.582	0.820	2.099	0.585	0.615	0.596	0.607	0.660	0.694
528																																																																																					0.524	0.581	0.607	0.578	0.820	2.106	0.580	0.610	0.591	0.602	0.655	0.688
529																																																																																					0.520	0.577	0.602	0.574	0.819	2.111	0.576	0.606	0.587	0.598	0.650	0.683
530																																																																																					0.517	0.573	0.598	0.571	0.819	2.115	0.572	0.601	0.582	0.593	0.645	0.678
531																																																																																					0.512	0.568	0.593	0.567	0.819	2.118	0.566	0.596	0.577	0.588	0.639	0.671
532																																																																																					0.507	0.561	0.586	0.561	0.818	2.121	0.560	0.589	0.571	0.581	0.631	0.663
533																																																																																					0.501	0.555	0.580	0.556	0.817	2.122	0.554	0.582	0.564	0.575	0.624	0.656
534																																																																																					0.497	0.550	0.575	0.552	0.816	2.122	0.548	0.577	0.559	0.569	0.618	0.649
535																																																																																					0.492	0.544	0.569	0.547	0.815	2.120	0.543	0.571	0.553	0.563	0.612	0.642
536																																																																																					0.487	0.539	0.564	0.543	0.814	2.119	0.538	0.565	0.548	0.557	0.605	0.636
537																																																																																					0.482	0.533	0.558	0.538	0.813	2.116	0.532	0.559	0.542	0.551	0.599	0.628
538																																																																																					0.477	0.528	0.552	0.534	0.811	2.111	0.526	0.552	0.535	0.545	0.592	0.621
539																																																																																					0.471	0.521	0.546	0.529	0.809	2.105	0.519	0.545	0.529	0.538	0.584	0.613
540																																																																																					0.465	0.514	0.539	0.524	0.807	2.099	0.513	0.538	0.522	0.531	0.576	0.605
541																																																																																					0.460	0.509	0.534	0.520	0.806	2.093	0.507	0.532	0.516	0.524	0.570	0.598
542																																																																																					0.455	0.503	0.528	0.516	0.804	2.086	0.501	0.526	0.511	0.519	0.564	0.592
543																																																																																					0.451	0.498	0.523	0.512	0.803	2.079	0.496	0.521	0.506	0.514	0.558	0.586
544																																																																																					0.446	0.492	0.517	0.507	0.801	2.071	0.490	0.514	0.499	0.507	0.551	0.578
545																																																																																					0.440	0.485	0.511	0.502	0.798	2.061	0.484	0.507	0.493	0.500	0.543	0.570
546																																																																																					0.434	0.479	0.504	0.498	0.796	2.051	0.477	0.500	0.486	0.493	0.536	0.562
547																																																																																					0.429	0.474	0.499	0.494	0.794	2.043	0.472	0.494	0.481	0.488	0.529	0.556
548																																																																																					0.424	0.468	0.493	0.489	0.791	2.032	0.466	0.488	0.475	0.482	0.523	0.549
549																																																																																					0.419	0.462	0.488	0.485	0.789	2.023	0.461	0.482	0.469	0.476	0.516	0.542
550																																																																																					0.414	0.456	0.482	0.480	0.786	2.013	0.455	0.476	0.463	0.470	0.510	0.535
551																																																																																					0.408	0.450	0.475	0.475	0.783	2.001	0.449	0.469	0.457	0.463	0.503	0.528
552																																																																																					0.403	0.444	0.469	0.470	0.780	1.990	0.443	0.463	0.451	0.457	0.496	0.520
553																																																																																					0.398	0.438	0.464	0.466	0.777	1.980	0.437	0.457	0.445	0.451	0.489	0.514
554																																																																																					0.393	0.432	0.457	0.461	0.773	1.970	0.431	0.451	0.439	0.445	0.483	0.507
555																																																																																					0.388	0.427	0.452	0.456	0.769	1.960	0.426	0.445	0.433	0.440	0.477	0.501
556																																																																																					0.382	0.421	0.446	0.451	0.765	1.949	0.420	0.439	0.427	0.434	0.470	0.494
557																																																																																					0.378	0.415	0.440	0.446	0.761	1.939	0.414	0.433	0.422	0.428	0.464	0.487
558																																																																																					0.372	0.409	0.434	0.440	0.756	1.927	0.408	0.426	0.416	0.422	0.458	0.481
559																																																																																					0.368	0.404	0.429	0.435	0.752	1.918	0.404	0.421	0.411	0.417	0.452	0.475
560																																																																																					0.363	0.399	0.423	0.430	0.747	1.908	0.398	0.416	0.406	0.412	0.446	0.469
561																																																																																					0.358	0.393	0.417	0.424	0.742	1.899	0.393	0.410	0.400	0.406	0.441	0.463
562																																																																																					0.354	0.388	0.412	0.419	0.737	1.891	0.388	0.405	0.396	0.402	0.435	0.457
563																																																																																					0.350	0.384	0.408	0.414	0.732	1.884	0.384	0.401	0.392	0.397	0.431	0.453
564																																																																																					0.346	0.380	0.403	0.409	0.726	1.876	0.380	0.396	0.387	0.393	0.426	0.448
565																																																																																					0.342	0.375	0.397	0.404	0.720	1.867	0.375	0.391	0.382	0.388	0.420	0.442
566																																																																																					0.338	0.370	0.392	0.398	0.714	1.861	0.370	0.386	0.378	0.383	0.416	0.437
567																																																																																					0.335	0.366	0.388	0.393	0.707	1.855	0.366	0.382	0.374	0.379	0.411	0.432
568																																																																																					0.331	0.362	0.383	0.388	0.701	1.847	0.362	0.377	0.370	0.375	0.407	0.428
569																																																																																					0.327	0.357	0.379	0.383	0.694	1.841	0.358	0.373	0.365	0.371	0.403	0.423
570																																																																																					0.324	0.354	0.374	0.378	0.687	1.835	0.354	0.369	0.362	0.368	0.399	0.419
571																																																																																					0.321	0.350	0.370	0.372	0.679	1.828	0.350	0.365	0.358	0.364	0.394	0.414
572																																																																																					0.318	0.346	0.365	0.367	0.672	1.822	0.346	0.361	0.354	0.360	0.390	0.410
573																																																																																					0.315	0.343	0.362	0.363	0.665	1.817	0.344	0.358	0.351	0.357	0.387	0.407
574																																																																																					0.312	0.340	0.358	0.358	0.658	1.812	0.340	0.355	0.348	0.354	0.384	0.404
575																																																																																					0.309	0.336	0.354	0.353	0.650	1.806	0.337	0.351	0.345	0.351	0.381	0.400
576																																																																																					0.307	0.333	0.351	0.349	0.643	1.800	0.334	0.348	0.342	0.348	0.378	0.397
577																																																																																					0.304	0.330	0.347	0.344	0.636	1.794	0.331	0.345	0.339	0.345	0.375	0.394
578																																																																																					0.302	0.327	0.344	0.340	0.628	1.788	0.328	0.342	0.336	0.342	0.372	0.391
579																																																																																					0.299	0.324	0.341	0.335	0.620	1.781	0.325	0.339	0.333	0.340	0.369	0.388
580																																																																																					0.297	0.321	0.337	0.330	0.612	1.774	0.322	0.336	0.331	0.337	0.366	0.385
581																																																																																					0.295	0.319	0.334	0.326	0.604	1.766	0.320	0.333	0.328	0.335	0.363	0.382
582																																																																																					0.293	0.316	0.331	0.322	0.596	1.758	0.317	0.331	0.326	0.332	0.361	0.379
583																																																																																					0.291	0.313	0.328	0.318	0.588	1.750	0.315	0.328	0.323	0.330	0.358	0.377
584																																																																																					0.289	0.311	0.325	0.314	0.580	1.741	0.313	0.325	0.321	0.328	0.356	0.374
585																																																																																					0.287	0.308	0.322	0.310	0.573	1.732	0.310	0.323	0.319	0.326	0.353	0.372
586																																																																																					0.285	0.306	0.320	0.307	0.565	1.721	0.308	0.321	0.316	0.323	0.351	0.370
587																																																																																					0.283	0.304	0.318	0.304	0.559	1.712	0.306	0.319	0.315	0.322	0.349	0.368
588																																																																																					0.282	0.302	0.315	0.300	0.552	1.701	0.304	0.317	0.313	0.320	0.348	0.366
589																																																																																					0.280	0.300	0.313	0.297	0.546	1.691	0.302	0.315	0.311	0.318	0.346	0.364
590																																																																																					0.279	0.298	0.311	0.294	0.540	1.678	0.300	0.313	0.309	0.317	0.344	0.363
591																																																																																					0.277	0.297	0.309	0.291	0.533	1.665	0.299	0.311	0.308	0.315	0.343	0.361
592																																																																																					0.276	0.295	0.308	0.289	0.528	1.651	0.297	0.310	0.306	0.314	0.341	0.360
593																																																																																					0.275	0.294	0.306	0.286	0.522	1.637	0.296	0.308	0.305	0.313	0.340	0.359
594																																																																																					0.274	0.292	0.304	0.284	0.517	1.623	0.294	0.307	0.304	0.311	0.339	0.358
595																																																																																					0.272	0.291	0.303	0.281	0.512	1.606	0.293	0.305	0.302	0.310	0.338	0.357
596																																																																																					0.271	0.289	0.302	0.279	0.507	1.590	0.292	0.304	0.301	0.309	0.337	0.356
597																																																																																					0.271	0.288	0.301	0.277	0.503	1.575	0.291	0.303	0.300	0.309	0.336	0.355
598																																																																																					0.270	0.287	0.300	0.275	0.499	1.558	0.290	0.302	0.300	0.308	0.335	0.355
599																																																																																					0.269	0.287	0.299	0.273	0.496	1.541	0.289	0.301	0.299	0.307	0.335	0.355
600																																																																																					0.269	0.286	0.298	0.271	0.492	1.521	0.288	0.301	0.298	0.307	0.335	0.354
601																																																																																					0.268	0.285	0.297	0.269	0.488	1.499	0.287	0.300	0.298	0.307	0.334	0.354
602																																																																																					0.267	0.284	0.296	0.267	0.485	1.477	0.287	0.299	0.297	0.306	0.334	0.354
603																																																																																					0.267	0.283	0.296	0.266	0.483	1.458	0.286	0.299	0.297	0.306	0.334	0.354
604																																																																																					0.267	0.283	0.296	0.265	0.481	1.440	0.286	0.298	0.297	0.306	0.334	0.354
605																																																																																					0.267	0.283	0.295	0.264	0.480	1.421	0.286	0.298	0.297	0.306	0.334	0.355
606																																																																																					0.267	0.282	0.295	0.262	0.478	1.402	0.285	0.298	0.297	0.306	0.334	0.355
607																																																																																					0.267	0.282	0.295	0.261	0.477	1.381	0.285	0.298	0.297	0.306	0.335	0.356
608																																																																																					0.267	0.282	0.295	0.260	0.477	1.358	0.285	0.298	0.297	0.307	0.335	0.357
609																																																																																					0.267	0.282	0.295	0.259	0.476	1.335	0.285	0.298	0.297	0.307	0.336	0.358
610																																																																																					0.268	0.282	0.296	0.258	0.476	1.313	0.285	0.298	0.298	0.308	0.337	0.359
611																																																																																					0.268	0.282	0.296	0.257	0.477	1.293	0.286	0.299	0.298	0.308	0.337	0.360
612																																																																																					0.269	0.283	0.296	0.256	0.477	1.270	0.286	0.299	0.299	0.309	0.338	0.361
613																																																																																					0.269	0.283	0.297	0.256	0.478	1.247	0.286	0.300	0.299	0.310	0.340	0.363
614																																																																																					0.270	0.283	0.297	0.255	0.480	1.222	0.287	0.301	0.300	0.312	0.341	0.365
615																																																																																					0.271	0.284	0.298	0.254	0.482	1.199	0.287	0.301	0.301	0.313	0.343	0.367
616																																																																																					0.272	0.285	0.299	0.254	0.484	1.174	0.288	0.302	0.302	0.314	0.344	0.369
617																																																																																					0.273	0.286	0.300	0.253	0.487	1.150	0.289	0.303	0.304	0.316	0.346	0.371
618																																																																																					0.274	0.286	0.301	0.253	0.490	1.127	0.290	0.304	0.305	0.317	0.348	0.373
619																																																																																					0.275	0.287	0.302	0.253	0.493	1.104	0.291	0.306	0.306	0.319	0.350	0.376
620																																																																																					0.277	0.288	0.303	0.252	0.497	1.076	0.292	0.307	0.308	0.321	0.352	0.379
621																																																																																					0.278	0.290	0.305	0.252	0.502	1.052	0.293	0.309	0.310	0.323	0.355	0.382
622																																																																																					0.280	0.291	0.306	0.252	0.507	1.029	0.295	0.310	0.311	0.325	0.358	0.385
623																																																																																					0.282	0.292	0.308	0.252	0.512	1.005	0.296	0.312	0.314	0.328	0.360	0.388
624																																																																																					0.283	0.294	0.310	0.252	0.517	0.986	0.297	0.314	0.315	0.330	0.363	0.391
625																																																																																					0.285	0.295	0.312	0.252	0.523	0.963	0.299	0.316	0.317	0.333	0.366	0.395
626																																																																																					0.287	0.297	0.314	0.252	0.529	0.941	0.301	0.318	0.320	0.335	0.369	0.398
627																																																																																					0.290	0.299	0.316	0.253	0.536	0.919	0.303	0.320	0.322	0.338	0.373	0.403
628																																																																																					0.292	0.301	0.318	0.253	0.543	0.899	0.305	0.323	0.325	0.341	0.376	0.406
629																																																																																					0.295	0.303	0.320	0.253	0.551	0.878	0.307	0.325	0.327	0.344	0.380	0.411
630																																																																																					0.297	0.305	0.323	0.254	0.559	0.857	0.309	0.328	0.330	0.347	0.384	0.415
631																																																																																					0.300	0.307	0.326	0.254	0.568	0.836	0.311	0.331	0.333	0.351	0.389	0.420
632																																																																																					0.303	0.310	0.328	0.255	0.577	0.816	0.314	0.334	0.336	0.355	0.393	0.425
633																																																																																					0.306	0.312	0.331	0.255	0.587	0.796	0.317	0.337	0.340	0.359	0.398	0.431
634																																																																																					0.309	0.315	0.334	0.256	0.597	0.777	0.319	0.340	0.343	0.363	0.402	0.436
635																																																																																					0.313	0.318	0.338	0.257	0.608	0.757	0.322	0.344	0.347	0.367	0.408	0.442
636																																																																																					0.317	0.321	0.341	0.258	0.619	0.738	0.325	0.347	0.351	0.372	0.413	0.448
637																																																																																					0.320	0.324	0.345	0.259	0.631	0.721	0.329	0.351	0.355	0.376	0.418	0.454
638																																																																																					0.324	0.328	0.349	0.260	0.644	0.703	0.332	0.355	0.359	0.382	0.424	0.461
639																																																																																					0.329	0.332	0.353	0.261	0.657	0.684	0.336	0.359	0.364	0.387	0.431	0.468
640																																																																																					0.333	0.335	0.357	0.262	0.670	0.667	0.339	0.364	0.369	0.392	0.438	0.476
641																																																																																					0.338	0.339	0.361	0.263	0.684	0.651	0.343	0.369	0.374	0.398	0.444	0.483
642																																																																																					0.343	0.343	0.366	0.264	0.699	0.634	0.347	0.373	0.379	0.404	0.451	0.491
643																																																																																					0.348	0.347	0.371	0.266	0.715	0.618	0.352	0.379	0.384	0.410	0.459	0.499
644																																																																																					0.353	0.352	0.376	0.267	0.730	0.603	0.356	0.384	0.390	0.416	0.466	0.508
645																																																																																					0.359	0.357	0.381	0.269	0.747	0.588	0.361	0.389	0.396	0.423	0.474	0.517
646																																																																																					0.364	0.362	0.387	0.271	0.763	0.573	0.366	0.395	0.402	0.430	0.482	0.526
647																																																																																					0.370	0.367	0.393	0.273	0.781	0.559	0.371	0.401	0.408	0.438	0.491	0.536
648																																																																																					0.377	0.372	0.399	0.274	0.799	0.545	0.376	0.407	0.415	0.446	0.500	0.546
649																																																																																					0.384	0.378	0.405	0.276	0.818	0.531	0.382	0.414	0.422	0.454	0.510	0.557
650																																																																																					0.389	0.383	0.411	0.278	0.834	0.520	0.387	0.420	0.428	0.461	0.518	0.566
651																																																																																					0.397	0.389	0.418	0.280	0.854	0.507	0.393	0.427	0.436	0.469	0.528	0.577
652																																																																																					0.403	0.394	0.424	0.282	0.871	0.496	0.399	0.434	0.443	0.477	0.538	0.587
653																																																																																					0.410	0.401	0.431	0.284	0.891	0.485	0.405	0.441	0.450	0.486	0.548	0.599
654																																																																																					0.418	0.407	0.438	0.287	0.910	0.473	0.411	0.449	0.458	0.495	0.559	0.611
655																																																																																					0.426	0.414	0.446	0.289	0.931	0.462	0.418	0.457	0.467	0.505	0.570	0.624
656																																																																																					0.434	0.421	0.454	0.292	0.952	0.452	0.425	0.465	0.476	0.515	0.582	0.637
657																																																																																					0.443	0.429	0.463	0.295	0.974	0.441	0.433	0.474	0.485	0.526	0.595	0.651
658																																																																																					0.452	0.437	0.471	0.298	0.995	0.431	0.440	0.484	0.494	0.537	0.607	0.665
659																																																																																					0.462	0.445	0.481	0.301	1.017	0.421	0.449	0.493	0.505	0.548	0.620	0.679
660																																																																																					0.470	0.452	0.489	0.304	1.036	0.413	0.456	0.501	0.514	0.558	0.632	0.692
661																																																																																					0.480	0.461	0.499	0.307	1.060	0.403	0.465	0.512	0.524	0.571	0.647	0.708
662																																																																																					0.491	0.470	0.509	0.310	1.082	0.394	0.474	0.522	0.535	0.583	0.661	0.724
663																																																																																					0.502	0.479	0.519	0.314	1.105	0.386	0.483	0.534	0.547	0.596	0.677	0.740
664																																																																																					0.512	0.489	0.530	0.317	1.127	0.378	0.493	0.545	0.558	0.609	0.691	0.757
665																																																																																					0.524	0.499	0.540	0.321	1.149	0.370	0.502	0.556	0.570	0.622	0.707	0.774
666																																																																																					0.533	0.507	0.551	0.325	1.168	0.363	0.512	0.567	0.581	0.634	0.721	0.789
667																																																																																					0.546	0.519	0.563	0.329	1.191	0.355	0.522	0.579	0.594	0.649	0.738	0.808
668																																																																																					0.559	0.530	0.575	0.333	1.214	0.347	0.534	0.592	0.608	0.664	0.756	0.827
669																																																																																					0.571	0.541	0.588	0.338	1.236	0.341	0.545	0.605	0.621	0.679	0.773	0.845
670																																																																																					0.584	0.553	0.600	0.342	1.257	0.334	0.556	0.619	0.634	0.694	0.791	0.865
671																																																																																					0.597	0.564	0.613	0.347	1.277	0.328	0.568	0.632	0.648	0.710	0.808	0.884
672																																																																																					0.610	0.576	0.626	0.351	1.296	0.322	0.579	0.645	0.662	0.725	0.826	0.903
673																																																																																					0.624	0.588	0.639	0.356	1.317	0.316	0.592	0.660	0.676	0.741	0.845	0.923
674																																																																																					0.639	0.602	0.655	0.362	1.338	0.310	0.606	0.676	0.693	0.759	0.865	0.946
675																																																																																					0.653	0.616	0.669	0.367	1.357	0.304	0.619	0.690	0.708	0.776	0.885	0.967
676																																																																																					0.668	0.630	0.685	0.373	1.376	0.299	0.633	0.707	0.725	0.795	0.906	0.990
677																																																																																					0.683	0.643	0.700	0.379	1.394	0.294	0.647	0.722	0.740	0.812	0.926	1.011
678																																																																																					0.699	0.657	0.716	0.385	1.411	0.288	0.661	0.739	0.757	0.831	0.947	1.033
679																																																																																					0.714	0.672	0.732	0.391	1.428	0.284	0.675	0.756	0.774	0.849	0.968	1.056
680																																																																																					0.731	0.688	0.749	0.398	1.445	0.279	0.691	0.774	0.792	0.869	0.991	1.081
681																																																																																					0.748	0.704	0.766	0.405	1.460	0.275	0.707	0.792	0.811	0.889	1.014	1.104
682																																																																																					0.764	0.720	0.783	0.412	1.474	0.271	0.722	0.809	0.828	0.908	1.036	1.127
683																																																																																					0.780	0.735	0.800	0.418	1.487	0.266	0.738	0.827	0.846	0.928	1.058	1.151
684																																																																																					0.798	0.752	0.818	0.426	1.500	0.263	0.755	0.846	0.865	0.948	1.081	1.176
685																																																																																					0.816	0.769	0.837	0.434	1.512	0.259	0.772	0.866	0.885	0.970	1.105	1.201
686																																																																																					0.835	0.788	0.858	0.442	1.524	0.255	0.790	0.887	0.906	0.992	1.131	1.228
687																																																																																					0.854	0.807	0.878	0.451	1.534	0.251	0.809	0.909	0.927	1.015	1.156	1.255
688																																																																																					0.873	0.826	0.899	0.460	1.543	0.247	0.828	0.929	0.948	1.038	1.181	1.282
689																																																																																					0.892	0.845	0.919	0.469	1.552	0.244	0.847	0.951	0.969	1.060	1.207	1.307
690																																																																																					0.910	0.863	0.939	0.478	1.558	0.241	0.865	0.971	0.989	1.081	1.230	1.333
691																																																																																					0.928	0.881	0.958	0.487	1.564	0.238	0.883	0.992	1.009	1.102	1.254	1.358
692																																																																																					0.947	0.901	0.979	0.496	1.568	0.235	0.903	1.013	1.031	1.125	1.278	1.384
693																																																																																					0.967	0.921	1.001	0.507	1.572	0.232	0.923	1.036	1.053	1.148	1.305	1.411
694																																																																																					0.987	0.942	1.023	0.517	1.575	0.229	0.943	1.059	1.074	1.171	1.330	1.438
695																																																																																					1.005	0.961	1.043	0.528	1.576	0.226	0.963	1.080	1.095	1.193	1.354	1.464
696																																																																																					1.025	0.983	1.067	0.539	1.577	0.223	0.985	1.103	1.119	1.217	1.380	1.491
697																																																																																					1.046	1.006	1.091	0.551	1.576	0.221	1.007	1.129	1.143	1.242	1.408	1.519
698																																																																																					1.065	1.025	1.112	0.562	1.576	0.219	1.026	1.150	1.164	1.263	1.432	1.544
699																																																																																					1.084	1.045	1.134	0.574	1.573	0.216	1.047	1.172	1.185	1.286	1.456	1.571
700																																																																																					1.101	1.065	1.154	0.585	1.570	0.214	1.066	1.193	1.206	1.306	1.479	1.594
701																																																																																					1.120	1.086	1.176	0.597	1.565	0.212	1.087	1.216	1.227	1.329	1.503	1.619
702																																																																																					1.139	1.107	1.199	0.609	1.560	0.210	1.109	1.240	1.249	1.351	1.527	1.644
703																																																																																					1.161	1.131	1.225	0.624	1.553	0.208	1.133	1.266	1.274	1.375	1.554	1.673
704																																																																																					1.180	1.153	1.247	0.637	1.546	0.206	1.155	1.289	1.296	1.398	1.578	1.699
705																																																																																					1.198	1.175	1.271	0.651	1.538	0.204	1.176	1.312	1.318	1.420	1.602	1.724
706																																																																																					1.217	1.196	1.294	0.665	1.530	0.202	1.198	1.335	1.340	1.442	1.625	1.748
707																																																																																					1.236	1.217	1.316	0.678	1.520	0.201	1.219	1.359	1.361	1.464	1.649	1.773
708																																																																																					1.254	1.239	1.339	0.693	1.510	0.199	1.241	1.382	1.383	1.485	1.671	1.798
709																																																																																					1.273	1.262	1.362	0.709	1.499	0.198	1.263	1.405	1.406	1.508	1.695	1.822
710																																																																																					1.291	1.283	1.385	0.723	1.488	0.196	1.285	1.427	1.427	1.528	1.717	1.843
711																																																																																					1.308	1.305	1.408	0.739	1.476	0.195	1.307	1.451	1.448	1.549	1.739	1.867
712																																																																																					1.325	1.325	1.429	0.753	1.464	0.194	1.327	1.471	1.468	1.569	1.759	1.887
713																																																																																					1.342	1.347	1.452	0.770	1.450	0.192	1.350	1.495	1.489	1.589	1.780	1.910
714																																																																																					1.359	1.369	1.475	0.787	1.436	0.191	1.371	1.518	1.511	1.609	1.802	1.930
715																																																																																					1.377	1.391	1.499	0.803	1.422	0.190	1.393	1.540	1.530	1.630	1.822	1.952
716																																																																																					1.393	1.411	1.520	0.821	1.408	0.189	1.414	1.562	1.550	1.648	1.841	1.971
717																																																																																					1.409	1.432	1.542	0.838	1.393	0.187	1.435	1.583	1.569	1.666	1.861	1.990
718																																																																																					1.424	1.452	1.563	0.855	1.378	0.186	1.455	1.604	1.588	1.684	1.879	2.009
719																																																																																					1.440	1.473	1.585	0.873	1.361	0.185	1.476	1.625	1.607	1.702	1.897	2.027
720																																																																																					1.454	1.492	1.605	0.890	1.346	0.184	1.495	1.645	1.625	1.719	1.914	2.043
721																																																																																					1.469	1.512	1.627	0.909	1.329	0.183	1.516	1.666	1.644	1.736	1.931	2.061
722																																																																																					1.484	1.533	1.649	0.929	1.312	0.182	1.537	1.688	1.662	1.753	1.950	2.078
723																																																																																					1.497	1.553	1.670	0.948	1.294	0.181	1.557	1.707	1.680	1.770	1.966	2.094
724																																																																																					1.510	1.572	1.690	0.967	1.277	0.180	1.576	1.726	1.696	1.785	1.981	2.109
725																																																																																					1.523	1.591	1.709	0.987	1.259	0.179	1.596	1.745	1.713	1.800	1.995	2.124
726																																																																																					1.535	1.609	1.729	1.006	1.242	0.178	1.614	1.763	1.728	1.813	2.009	2.138
727																																																																																					1.547	1.627	1.748	1.026	1.224	0.177	1.632	1.781	1.744	1.827	2.023	2.151
728																																																																																					1.558	1.646	1.768	1.047	1.206	0.177	1.651	1.799	1.760	1.841	2.036	2.164
729																																																																																					1.569	1.663	1.786	1.068	1.188	0.176	1.668	1.816	1.774	1.854	2.049	2.175
730																																																																																					1.579	1.680	1.804	1.088	1.171	0.176	1.685	1.833	1.788	1.866	2.060	2.187
731																																																																																					1.589	1.697	1.822	1.110	1.153	0.175	1.703	1.849	1.802	1.878	2.071	2.197
732																																																																																					1.598	1.713	1.839	1.131	1.135	0.175	1.718	1.864	1.815	1.889	2.081	2.206
733																																																																																					1.607	1.729	1.856	1.152	1.117	0.174	1.734	1.880	1.827	1.899	2.091	2.214
734																																																																																					1.615	1.742	1.870	1.172	1.101	0.174	1.748	1.893	1.838	1.908	2.100	2.221
735																																																																																					1.622	1.757	1.886	1.193	1.084	0.173	1.763	1.907	1.849	1.917	2.107	2.230
736																																																																																					1.629	1.771	1.902	1.216	1.066	0.173	1.778	1.920	1.860	1.925	2.115	2.236
737																																																																																					1.636	1.785	1.916	1.238	1.048	0.172	1.792	1.933	1.870	1.933	2.121	2.242
738																																																																																					1.641	1.799	1.931	1.260	1.031	0.172	1.805	1.945	1.880	1.940	2.127	2.247
739																																																																																					1.647	1.811	1.943	1.282	1.014	0.171	1.818	1.957	1.888	1.946	2.132	2.251
740																																																																																					1.652	1.823	1.958	1.306	0.995	0.171	1.831	1.968	1.897	1.953	2.137	2.255
741																																																																																					1.656	1.835	1.970	1.328	0.978	0.170	1.842	1.978	1.904	1.957	2.139	2.257
742																																																																																					1.659	1.845	1.981	1.350	0.962	0.170	1.853	1.988	1.911	1.961	2.143	2.260
743																																																																																					1.662	1.855	1.992	1.372	0.944	0.169	1.863	1.996	1.916	1.964	2.144	2.260
744																																																																																					1.665	1.865	2.002	1.395	0.928	0.168	1.873	2.004	1.922	1.968	2.146	2.262
745																																																																																					1.666	1.873	2.012	1.418	0.912	0.168	1.881	2.011	1.927	1.970	2.146	2.260
746																																																																																					1.667	1.882	2.021	1.439	0.896	0.167	1.890	2.018	1.931	1.972	2.146	2.260
747																																																																																					1.668	1.890	2.030	1.462	0.880	0.167	1.898	2.024	1.936	1.973	2.146	2.257
748																																																																																					1.669	1.897	2.038	1.484	0.865	0.166	1.905	2.031	1.938	1.973	2.145	2.254
749																																																																																					1.668	1.903	2.046	1.507	0.849	0.166	1.912	2.035	1.940	1.973	2.142	2.252
750																																																																																					1.668	1.909	2.053	1.528	0.834	0.165	1.918	2.039	1.942	1.973	2.139	2.249
751																																																																																					1.666	1.914	2.058	1.550	0.820	0.165	1.924	2.042	1.944	1.971	2.137	2.245
752																																																																																					1.665	1.919	2.063	1.570	0.806	0.165	1.929	2.046	1.944	1.970	2.134	2.240
753																																																																																					1.663	1.923	2.069	1.592	0.793	0.164	1.933	2.048	1.945	1.968	2.129	2.235
754																																																																																					1.660	1.927	2.073	1.613	0.779	0.164	1.937	2.051	1.945	1.965	2.125	2.230
755																																																																																					1.657	1.930	2.076	1.634	0.764	0.163	1.940	2.052	1.944	1.961	2.119	2.225
756																																																																																					1.654	1.934	2.080	1.655	0.751	0.163	1.944	2.052	1.943	1.958	2.114	2.218
757																																																																																					1.650	1.935	2.082	1.677	0.738	0.162	1.946	2.053	1.941	1.954	2.108	2.210
758																																																																																					1.646	1.937	2.085	1.698	0.725	0.162	1.948	2.053	1.940	1.949	2.100	2.204
759																																																																																					1.641	1.938	2.087	1.720	0.711	0.162	1.950	2.052	1.936	1.944	2.093	2.195
760																																																																																					1.636	1.939	2.088	1.740	0.699	0.162	1.951	2.051	1.934	1.938	2.086	2.186
761																																																																																					1.630	1.939	2.088	1.764	0.685	0.161	1.951	2.049	1.929	1.931	2.077	2.177
762																																																																																					1.623	1.938	2.089	1.785	0.672	0.161	1.951	2.046	1.924	1.923	2.067	2.167
763																																																																																					1.618	1.937	2.088	1.805	0.660	0.160	1.950	2.043	1.920	1.916	2.058	2.156
764																																																																																					1.611	1.936	2.087	1.826	0.649	0.160	1.949	2.041	1.915	1.910	2.048	2.146
765																																																																																					1.606	1.935	2.086	1.840	0.640	0.160	1.948	2.037	1.911	1.903	2.041	2.137
766																																																																																					1.600	1.933	2.084	1.857	0.630	0.159	1.946	2.033	1.905	1.896	2.031	2.125
767																																																																																					1.591	1.929	2.081	1.877	0.619	0.159	1.943	2.028	1.899	1.887	2.020	2.114
768																																																																																					1.584	1.926	2.078	1.896	0.607	0.159	1.940	2.023	1.891	1.878	2.009	2.102
769																																																																																					1.575	1.921	2.074	1.915	0.597	0.158	1.937	2.017	1.884	1.868	1.996	2.089
770																																																																																					1.566	1.918	2.070	1.933	0.586	0.158	1.931	2.009	1.877	1.859	1.985	2.078
771																																																																																					1.559	1.913	2.065	1.951	0.577	0.158	1.929	2.003	1.869	1.849	1.974	2.065
772																																																																																					1.550	1.907	2.061	1.966	0.567	0.158	1.923	1.997	1.862	1.838	1.962	2.050
773																																																																																					1.540	1.902	2.056	1.985	0.557	0.157	1.917	1.989	1.852	1.828	1.948	2.038
774																																																																																					1.531	1.897	2.051	2.002	0.548	0.157	1.913	1.982	1.843	1.818	1.936	2.025
775																																																																																					1.521	1.891	2.044	2.018	0.538	0.157	1.906	1.972	1.833	1.806	1.922	2.010
776																																																																																					1.512	1.884	2.036	2.034	0.528	0.157	1.899	1.966	1.824	1.796	1.909	1.996
777																																																																																					1.502	1.876	2.031	2.048	0.520	0.156	1.893	1.955	1.815	1.784	1.896	1.982
778																																																																																					1.492	1.870	2.023	2.064	0.511	0.156	1.886	1.947	1.805	1.772	1.882	1.967
779																																																																																					1.481	1.863	2.015	2.079	0.502	0.155	1.878	1.936	1.794	1.759	1.868	1.951
780																																																																																					1.471	1.853	2.007	2.095	0.493	0.155	1.870	1.925	1.783	1.747	1.853	1.936
781																																																																																					1.460	1.844	1.999	2.107	0.485	0.155	1.862	1.916	1.772	1.735	1.839	1.921
782																																																																																					1.448	1.834	1.989	2.122	0.476	0.155	1.853	1.903	1.759	1.721	1.823	1.905
783																																																																																					1.436	1.826	1.979	2.137	0.468	0.154	1.844	1.893	1.749	1.708	1.808	1.889
784																																																																																					1.425	1.816	1.969	2.150	0.460	0.154	1.833	1.882	1.736	1.694	1.793	1.872
785																																																																																					1.413	1.805	1.960	2.162	0.452	0.154	1.824	1.870	1.724	1.680	1.777	1.856
786																																																																																					1.401	1.794	1.950	2.174	0.444	0.154	1.813	1.857	1.711	1.665	1.761	1.840
787																																																																																					1.389	1.784	1.938	2.186	0.436	0.153	1.803	1.844	1.698	1.652	1.745	1.822
788																																																																																					1.377	1.774	1.927	2.199	0.429	0.153	1.792	1.831	1.684	1.637	1.730	1.805
789																																																																																					1.366	1.763	1.917	2.209	0.422	0.153	1.782	1.820	1.673	1.624	1.714	1.789
790																																																																																					1.355	1.752	1.906	2.219	0.415	0.152	1.772	1.807	1.660	1.611	1.699	1.773
791																																																																																					1.342	1.742	1.895	2.226	0.408	0.152	1.761	1.795	1.648	1.597	1.683	1.757
792																																																																																					1.329	1.728	1.883	2.236	0.402	0.152	1.748	1.781	1.634	1.582	1.667	1.739
793																																																																																					1.318	1.717	1.870	2.246	0.395	0.152	1.737	1.767	1.621	1.568	1.651	1.722
794																																																																																					1.305	1.706	1.857	2.250	0.388	0.151	1.725	1.754	1.606	1.553	1.636	1.704
795																																																																																					1.292	1.692	1.845	2.260	0.381	0.151	1.713	1.739	1.592	1.537	1.617	1.688
796																																																																																					1.278	1.679	1.830	2.268	0.375	0.151	1.698	1.724	1.577	1.522	1.600	1.668
797																																																																																					1.265	1.666	1.818	2.277	0.369	0.151	1.686	1.710	1.563	1.508	1.584	1.651
798																																																																																					1.254	1.655	1.806	2.281	0.363	0.150	1.673	1.696	1.549	1.494	1.569	1.635
799																																																																																					1.241	1.641	1.792	2.285	0.357	0.150	1.661	1.682	1.535	1.478	1.552	1.617
800																																																																																					1.229	1.628	1.778	2.291	0.351	0.150	1.648	1.667	1.521	1.464	1.536	1.600
801																																																																																					1.216	1.614	1.763	2.299	0.345	0.150	1.633	1.652	1.506	1.447	1.518	1.582
802																																																																																					1.203	1.601	1.750	2.303	0.340	0.149	1.620	1.638	1.492	1.433	1.503	1.565
803																																																																																					1.191	1.588	1.736	2.304	0.335	0.149	1.608	1.624	1.478	1.419	1.487	1.549
804																																																																																					1.178	1.574	1.722	2.309	0.329	0.149	1.595	1.609	1.464	1.404	1.471	1.532
805																																																																																					1.166	1.561	1.707	2.311	0.324	0.149	1.581	1.593	1.450	1.389	1.454	1.514
806																																																																																					1.154	1.548	1.694	2.313	0.319	0.148	1.568	1.580	1.436	1.375	1.439	1.498
807																																																																																					1.142	1.534	1.679	2.317	0.314	0.148	1.553	1.565	1.421	1.360	1.423	1.481
808																																																																																					1.128	1.520	1.665	2.318	0.309	0.148	1.539	1.549	1.406	1.345	1.407	1.464
809																																																																																					1.116	1.506	1.650	2.319	0.304	0.148	1.525	1.534	1.393	1.330	1.391	1.448
810																																																																																					1.104	1.493	1.636	2.318	0.300	0.148	1.512	1.520	1.379	1.317	1.376	1.432
811																																																																																					1.091	1.479	1.621	2.319	0.295	0.147	1.497	1.504	1.364	1.301	1.361	1.415
812																																																																																					1.080	1.465	1.607	2.316	0.291	0.147	1.484	1.489	1.350	1.287	1.345	1.399
813																																																																																					1.067	1.451	1.591	2.316	0.286	0.147	1.470	1.474	1.335	1.273	1.328	1.382
814																																																																																					1.055	1.437	1.576	2.316	0.282	0.147	1.456	1.459	1.322	1.258	1.313	1.366
815																																																																																					1.042	1.422	1.560	2.313	0.277	0.147	1.441	1.443	1.306	1.243	1.296	1.349
816																																																																																					1.030	1.408	1.545	2.312	0.273	0.147	1.427	1.428	1.292	1.229	1.281	1.333
817																																																																																					1.018	1.394	1.529	2.308	0.269	0.146	1.413	1.413	1.278	1.215	1.266	1.317
818																																																																																					1.006	1.379	1.514	2.304	0.265	0.146	1.398	1.398	1.263	1.200	1.250	1.302
819																																																																																					0.990	1.361	1.495	2.299	0.260	0.146	1.380	1.378	1.246	1.183	1.231	1.282
820																																																																																					0.975	1.342	1.476	2.295	0.256	0.146	1.362	1.359	1.227	1.164	1.211	1.265
821																																																																																					0.960	1.325	1.457	2.288	0.251	0.146	1.345	1.341	1.211	1.147	1.193	1.248
822																																																																																					0.951	1.314	1.444	2.284	0.248	0.146	1.333	1.329	1.199	1.136	1.181	1.233
823																																																																																					0.945	1.306	1.436	2.283	0.246	0.146	1.325	1.320	1.191	1.128	1.172	1.221
824																																																																																					0.939	1.299	1.428	2.280	0.244	0.146	1.318	1.313	1.184	1.121	1.165	1.212
825																																																																																					0.931	1.289	1.417	2.276	0.242	0.146	1.308	1.302	1.174	1.111	1.155	1.200
826																																																																																					0.918	1.273	1.400	2.267	0.238	0.146	1.292	1.286	1.158	1.096	1.139	1.184
827																																																																																					0.904	1.256	1.382	2.258	0.234	0.146	1.275	1.268	1.142	1.079	1.121	1.167
828																																																																																					0.894	1.243	1.367	2.252	0.232	0.146	1.262	1.254	1.130	1.067	1.108	1.153
829																																																																																					0.885	1.233	1.356	2.246	0.230	0.146	1.252	1.243	1.119	1.056	1.097	1.141
830																																																																																					0.877	1.222	1.344	2.239	0.227	0.147	1.240	1.231	1.108	1.046	1.085	1.128
831																																																																																					0.865	1.207	1.328	2.229	0.224	0.147	1.225	1.216	1.094	1.032	1.071	1.113
832																																																																																					0.848	1.186	1.305	2.215	0.220	0.147	1.204	1.195	1.074	1.012	1.050	1.095
833																																																																																					0.836	1.171	1.288	2.203	0.217	0.147	1.189	1.178	1.060	0.998	1.034	1.079
834																																																																																					0.827	1.160	1.276	2.196	0.215	0.147	1.177	1.166	1.049	0.987	1.023	1.067
835																																																																																					0.820	1.151	1.265	2.188	0.213	0.147	1.168	1.157	1.040	0.979	1.014	1.056
836																																																																																					0.812	1.140	1.254	2.180	0.211	0.147	1.158	1.146	1.030	0.969	1.004	1.045
837																																																																																					0.803	1.129	1.241	2.170	0.208	0.147	1.147	1.134	1.019	0.958	0.992	1.032
838																																																																																					0.789	1.111	1.222	2.154	0.205	0.146	1.129	1.116	1.002	0.942	0.976	1.016
839																																																																																					0.777	1.096	1.205	2.139	0.202	0.146	1.113	1.100	0.988	0.928	0.961	1.001
840																																																																																					0.767	1.082	1.190	2.128	0.200	0.146	1.100	1.086	0.975	0.916	0.947	0.988
841																																																																																					0.759	1.071	1.178	2.116	0.198	0.146	1.088	1.074	0.965	0.905	0.936	0.977
842																																																																																					0.750	1.061	1.166	2.107	0.195	0.146	1.077	1.064	0.954	0.895	0.926	0.965
843																																																																																					0.741	1.048	1.152	2.093	0.193	0.145	1.065	1.051	0.943	0.884	0.914	0.953
844																																																																																					0.731	1.035	1.138	2.079	0.191	0.145	1.052	1.037	0.930	0.872	0.902	0.941
845																																																																																					0.720	1.022	1.123	2.066	0.189	0.145	1.039	1.023	0.918	0.860	0.889	0.927
846																																																																																					0.710	1.008	1.108	2.050	0.186	0.144	1.025	1.009	0.905	0.847	0.876	0.914
847																																																																																					0.701	0.996	1.095	2.036	0.184	0.144	1.013	0.997	0.894	0.837	0.865	0.903
848																																																																																					0.693	0.985	1.082	2.022	0.182	0.144	1.001	0.985	0.884	0.826	0.855	0.892
849																																																																																					0.684	0.974	1.070	2.010	0.180	0.144	0.989	0.973	0.873	0.817	0.843	0.881
850																																																																																					0.676	0.962	1.057	1.994	0.178	0.144	0.979	0.962	0.863	0.807	0.833	0.870
851																																																																																					0.667	0.951	1.043	1.980	0.176	0.143	0.966	0.950	0.851	0.796	0.822	0.859
852																																																																																					0.659	0.939	1.031	1.965	0.174	0.143	0.955	0.939	0.841	0.785	0.812	0.848
853																																																																																					0.650	0.928	1.019	1.950	0.172	0.143	0.944	0.927	0.831	0.776	0.801	0.837
854																																																																																					0.641	0.915	1.005	1.933	0.170	0.143	0.931	0.913	0.819	0.765	0.789	0.825
855																																																																																					0.633	0.904	0.992	1.918	0.169	0.142	0.920	0.903	0.809	0.756	0.780	0.815
856																																																																																					0.624	0.893	0.980	1.903	0.167	0.142	0.909	0.891	0.799	0.745	0.769	0.804
857																																																																																					0.617	0.882	0.968	1.886	0.165	0.142	0.897	0.880	0.788	0.736	0.759	0.794
858																																																																																					0.609	0.871	0.956	1.869	0.164	0.141	0.887	0.869	0.778	0.726	0.749	0.783
859																																																																																					0.602	0.861	0.945	1.855	0.162	0.141	0.877	0.859	0.769	0.717	0.740	0.774
860																																																																																					0.594	0.851	0.932	1.839	0.161	0.141	0.866	0.848	0.760	0.708	0.731	0.764
861																																																																																					0.587	0.841	0.921	1.823	0.159	0.141	0.856	0.838	0.751	0.700	0.722	0.755
862																																																																																					0.580	0.831	0.910	1.807	0.158	0.141	0.846	0.828	0.742	0.691	0.712	0.745
863																																																																																					0.573	0.820	0.899	1.791	0.156	0.140	0.836	0.818	0.733	0.682	0.704	0.736
864																																																																																					0.566	0.811	0.888	1.775	0.155	0.140	0.826	0.807	0.724	0.674	0.695	0.728
865																																																																																					0.559	0.801	0.878	1.759	0.154	0.140	0.817	0.797	0.715	0.665	0.686	0.718
866																																																																																					0.552	0.792	0.867	1.743	0.152	0.140	0.807	0.788	0.707	0.657	0.678	0.710
867																																																																																					0.546	0.783	0.857	1.727	0.152	0.140	0.798	0.780	0.699	0.650	0.670	0.702
868																																																																																					0.538	0.772	0.845	1.708	0.150	0.140	0.787	0.768	0.689	0.641	0.660	0.692
869																																																																																					0.532	0.763	0.834	1.692	0.149	0.140	0.778	0.759	0.681	0.633	0.652	0.683
870																																																																																					0.526	0.754	0.825	1.676	0.148	0.140	0.770	0.750	0.673	0.626	0.644	0.676
871																																																																																					0.520	0.746	0.815	1.659	0.147	0.140	0.761	0.742	0.666	0.619	0.637	0.668
872																																																																																					0.514	0.737	0.805	1.644	0.146	0.140	0.752	0.733	0.658	0.611	0.629	0.660
873																																																																																					0.509	0.729	0.796	1.627	0.145	0.140	0.744	0.724	0.650	0.604	0.622	0.652
874																																																																																					0.502	0.720	0.786	1.612	0.144	0.140	0.735	0.716	0.642	0.597	0.614	0.645
875																																																																																					0.496	0.710	0.775	1.592	0.143	0.139	0.725	0.705	0.633	0.589	0.606	0.636
876																																																																																					0.489	0.702	0.765	1.574	0.142	0.139	0.717	0.697	0.626	0.582	0.598	0.628
877																																																																																					0.483	0.692	0.755	1.556	0.141	0.139	0.708	0.688	0.618	0.574	0.590	0.621
878																																																																																					0.475	0.681	0.742	1.534	0.140	0.138	0.697	0.677	0.608	0.565	0.581	0.612
879																																																																																					0.466	0.669	0.729	1.510	0.138	0.137	0.685	0.665	0.598	0.555	0.571	0.603
880																																																																																					0.460	0.660	0.719	1.492	0.137	0.137	0.675	0.656	0.590	0.547	0.563	0.594
881																																																																																					0.457	0.655	0.712	1.480	0.136	0.136	0.669	0.650	0.584	0.542	0.558	0.588
882																																																																																					0.454	0.651	0.707	1.471	0.136	0.136	0.665	0.646	0.580	0.538	0.554	0.582
883																																																																																					0.451	0.647	0.703	1.462	0.135	0.136	0.660	0.642	0.576	0.534	0.550	0.577
884																																																																																					0.448	0.643	0.697	1.452	0.134	0.135	0.656	0.637	0.572	0.530	0.546	0.572
885																																																																																					0.443	0.635	0.689	1.436	0.133	0.135	0.648	0.630	0.565	0.524	0.540	0.565
886																																																																																					0.435	0.625	0.677	1.414	0.132	0.134	0.638	0.620	0.556	0.516	0.531	0.557
887																																																																																					0.429	0.616	0.667	1.395	0.131	0.134	0.629	0.611	0.548	0.508	0.524	0.550
888																																																																																					0.423	0.608	0.658	1.376	0.130	0.133	0.620	0.602	0.541	0.501	0.516	0.542
889																																																																																					0.418	0.600	0.649	1.359	0.129	0.133	0.613	0.595	0.534	0.495	0.510	0.536
890																																																																																					0.413	0.592	0.640	1.340	0.128	0.132	0.605	0.587	0.527	0.489	0.504	0.529
891																																																																																					0.407	0.585	0.631	1.322	0.128	0.132	0.597	0.579	0.520	0.482	0.497	0.522
892																																																																																					0.401	0.576	0.622	1.303	0.127	0.131	0.588	0.571	0.513	0.475	0.490	0.516
893																																																																																					0.396	0.568	0.613	1.284	0.126	0.131	0.580	0.563	0.506	0.469	0.483	0.509
894																																																																																					0.391	0.561	0.605	1.267	0.125	0.130	0.573	0.555	0.499	0.463	0.477	0.502
895																																																																																					0.388	0.556	0.599	1.255	0.124	0.130	0.568	0.550	0.495	0.458	0.472	0.497
896																																																																																					0.385	0.552	0.594	1.244	0.124	0.130	0.564	0.546	0.491	0.455	0.469	0.493
897																																																																																					0.382	0.548	0.589	1.233	0.124	0.130	0.559	0.542	0.487	0.451	0.465	0.488
898																																																																																					0.379	0.542	0.583	1.220	0.123	0.130	0.554	0.536	0.482	0.447	0.461	0.483
899																																																																																					0.373	0.534	0.574	1.200	0.122	0.129	0.546	0.528	0.475	0.440	0.454	0.477
900																																																																																					0.368	0.527	0.566	1.183	0.122	0.129	0.538	0.522	0.469	0.435	0.448	0.471
901																																																																																					0.363	0.519	0.557	1.163	0.121	0.129	0.531	0.514	0.463	0.429	0.442	0.466
902																																																																																					0.357	0.511	0.549	1.144	0.121	0.128	0.523	0.506	0.456	0.422	0.435	0.460
903																																																																																					0.353	0.505	0.542	1.128	0.120	0.128	0.516	0.500	0.451	0.417	0.430	0.454
904																																																																																					0.351	0.501	0.537	1.117	0.120	0.128	0.512	0.496	0.447	0.413	0.426	0.450
905																																																																																					0.349	0.498	0.533	1.108	0.119	0.128	0.509	0.492	0.444	0.410	0.423	0.446
906																																																																																					0.347	0.495	0.529	1.099	0.119	0.128	0.505	0.489	0.441	0.408	0.421	0.442
907																																																																																					0.344	0.491	0.524	1.088	0.119	0.128	0.501	0.485	0.437	0.405	0.417	0.438
908																																																																																					0.340	0.484	0.517	1.071	0.119	0.128	0.494	0.479	0.431	0.400	0.412	0.433
909																																																																																					0.335	0.477	0.510	1.052	0.118	0.128	0.488	0.472	0.425	0.394	0.407	0.428
910																																																																																					0.331	0.471	0.503	1.036	0.118	0.128	0.482	0.466	0.420	0.389	0.402	0.423
911																																																																																					0.328	0.466	0.497	1.022	0.118	0.127	0.476	0.461	0.416	0.385	0.397	0.419
912																																																																																					0.324	0.459	0.490	1.004	0.118	0.128	0.470	0.454	0.410	0.380	0.392	0.414
913																																																																																					0.319	0.453	0.483	0.987	0.118	0.128	0.464	0.449	0.406	0.376	0.387	0.410
914																																																																																					0.315	0.447	0.476	0.971	0.117	0.128	0.458	0.443	0.400	0.371	0.382	0.405
915																																																																																					0.313	0.443	0.471	0.960	0.117	0.128	0.454	0.439	0.397	0.367	0.379	0.401
916																																																																																					0.312	0.441	0.468	0.952	0.117	0.128	0.451	0.436	0.395	0.365	0.377	0.398
917																																																																																					0.311	0.439	0.466	0.946	0.117	0.128	0.449	0.434	0.393	0.364	0.376	0.396
918																																																																																					0.310	0.437	0.464	0.938	0.117	0.129	0.447	0.432	0.391	0.362	0.374	0.393
919																																																																																					0.308	0.434	0.460	0.928	0.118	0.129	0.444	0.428	0.388	0.359	0.371	0.391
920																																																																																					0.304	0.429	0.454	0.913	0.118	0.129	0.438	0.424	0.384	0.356	0.367	0.387
921																																																																																					0.302	0.424	0.449	0.899	0.119	0.130	0.433	0.419	0.380	0.352	0.364	0.384
922																																																																																					0.299	0.420	0.444	0.887	0.119	0.131	0.429	0.415	0.377	0.349	0.361	0.381
923																																																																																					0.297	0.416	0.440	0.874	0.120	0.132	0.426	0.412	0.373	0.347	0.358	0.378
924																																																																																					0.295	0.413	0.436	0.864	0.120	0.133	0.422	0.408	0.371	0.344	0.355	0.375
925																																																																																					0.293	0.409	0.432	0.851	0.122	0.134	0.418	0.405	0.367	0.341	0.353	0.373
926																																																																																					0.291	0.406	0.429	0.840	0.122	0.135	0.415	0.402	0.365	0.339	0.351	0.371
927																																																																																					0.290	0.404	0.425	0.830	0.124	0.136	0.412	0.399	0.363	0.337	0.349	0.369
928																																																																																					0.288	0.400	0.422	0.819	0.125	0.137	0.409	0.396	0.360	0.335	0.347	0.367
929																																																																																					0.287	0.398	0.419	0.809	0.126	0.139	0.407	0.394	0.358	0.334	0.345	0.365
930																																																																																					0.285	0.396	0.416	0.799	0.127	0.140	0.404	0.392	0.356	0.332	0.344	0.363
931																																																																																					0.284	0.393	0.413	0.790	0.128	0.141	0.402	0.389	0.355	0.330	0.342	0.362
932																																																																																					0.283	0.391	0.411	0.781	0.130	0.143	0.400	0.387	0.353	0.329	0.341	0.361
933																																																																																					0.282	0.389	0.408	0.771	0.131	0.145	0.397	0.385	0.352	0.328	0.340	0.360
934																																																																																					0.281	0.387	0.406	0.760	0.133	0.147	0.395	0.383	0.350	0.327	0.339	0.359
935																																																																																					0.280	0.385	0.403	0.751	0.135	0.149	0.393	0.382	0.349	0.326	0.338	0.358
936																																																																																					0.280	0.383	0.401	0.743	0.137	0.151	0.391	0.380	0.347	0.325	0.337	0.357
937																																																																																					0.280	0.382	0.400	0.736	0.139	0.153	0.390	0.379	0.347	0.324	0.337	0.357
938																																																																																					0.279	0.381	0.399	0.730	0.140	0.154	0.389	0.378	0.346	0.323	0.336	0.356
939																																																																																					0.280	0.381	0.397	0.723	0.142	0.157	0.388	0.377	0.346	0.323	0.336	0.355
940																																																																																					0.279	0.380	0.396	0.717	0.144	0.159	0.387	0.377	0.345	0.323	0.336	0.355
941																																																																																					0.279	0.379	0.395	0.710	0.146	0.162	0.386	0.376	0.345	0.323	0.336	0.356
942																																																																																					0.280	0.378	0.394	0.703	0.149	0.164	0.386	0.376	0.344	0.323	0.337	0.356
943																																																																																					0.280	0.378	0.394	0.696	0.152	0.168	0.385	0.375	0.345	0.324	0.337	0.357
944																																																																																					0.281	0.378	0.393	0.690	0.155	0.171	0.385	0.376	0.345	0.324	0.338	0.358
945																																																																																					0.281	0.378	0.393	0.684	0.158	0.174	0.385	0.376	0.345	0.325	0.339	0.359
946																																																																																					0.282	0.378	0.394	0.679	0.161	0.177	0.385	0.377	0.346	0.326	0.340	0.360
947																																																																																					0.284	0.379	0.395	0.674	0.165	0.182	0.386	0.378	0.348	0.328	0.342	0.363
948																																																																																					0.286	0.381	0.396	0.670	0.170	0.187	0.388	0.379	0.350	0.330	0.345	0.365
949																																																																																					0.288	0.382	0.397	0.666	0.173	0.191	0.389	0.381	0.351	0.332	0.347	0.368
950																																																																																					0.290	0.384	0.399	0.662	0.178	0.196	0.391	0.383	0.353	0.335	0.350	0.371
951																																																																																					0.293	0.387	0.401	0.660	0.183	0.202	0.393	0.386	0.357	0.338	0.354	0.374
952																																																																																					0.295	0.389	0.403	0.658	0.187	0.206	0.395	0.388	0.358	0.340	0.356	0.377
953																																																																																					0.298	0.391	0.406	0.656	0.192	0.211	0.398	0.391	0.361	0.343	0.360	0.381
954																																																																																					0.301	0.394	0.408	0.654	0.197	0.217	0.401	0.394	0.365	0.347	0.364	0.385
955																																																																																					0.304	0.397	0.411	0.652	0.202	0.223	0.403	0.397	0.368	0.350	0.368	0.389
956																																																																																					0.307	0.400	0.414	0.649	0.207	0.229	0.405	0.400	0.371	0.354	0.371	0.393
957																																																																																					0.310	0.401	0.416	0.646	0.212	0.234	0.407	0.402	0.373	0.356	0.374	0.397
958																																																																																					0.312	0.403	0.417	0.643	0.216	0.238	0.409	0.404	0.375	0.358	0.376	0.399
959																																																																																					0.313	0.404	0.418	0.639	0.219	0.241	0.409	0.405	0.376	0.360	0.378	0.401
960																																																																																					0.314	0.404	0.418	0.634	0.222	0.245	0.410	0.406	0.377	0.361	0.379	0.402
961																																																																																					0.314	0.404	0.418	0.630	0.224	0.247	0.409	0.406	0.377	0.361	0.380	0.403
962																																																																																					0.314	0.403	0.417	0.624	0.226	0.249	0.409	0.405	0.377	0.361	0.380	0.403
963																																																																																					0.314	0.402	0.416	0.620	0.227	0.250	0.408	0.404	0.376	0.360	0.380	0.403
964																																																																																					0.313	0.401	0.414	0.614	0.228	0.251	0.406	0.404	0.375	0.360	0.379	0.402
965																																																																																					0.313	0.399	0.413	0.608	0.229	0.252	0.405	0.402	0.374	0.359	0.378	0.401
966																																																																																					0.312	0.398	0.411	0.602	0.230	0.253	0.403	0.401	0.373	0.358	0.377	0.400
967																																																																																					0.311	0.396	0.409	0.596	0.230	0.254	0.401	0.399	0.371	0.357	0.376	0.399
968																																																																																					0.310	0.394	0.407	0.591	0.230	0.254	0.400	0.397	0.370	0.356	0.375	0.398
969																																																																																					0.309	0.393	0.406	0.586	0.231	0.254	0.398	0.396	0.369	0.355	0.374	0.396
970																																																																																					0.308	0.391	0.404	0.580	0.231	0.254	0.397	0.394	0.368	0.353	0.372	0.395
971																																																																																					0.307	0.389	0.402	0.575	0.231	0.254	0.395	0.392	0.366	0.352	0.371	0.394
972																																																																																					0.306	0.388	0.399	0.569	0.231	0.254	0.393	0.391	0.365	0.350	0.370	0.392
973																																																																																					0.305	0.386	0.398	0.564	0.231	0.254	0.391	0.389	0.363	0.349	0.368	0.391
974																																																																																					0.303	0.383	0.395	0.558	0.231	0.254	0.389	0.387	0.361	0.348	0.366	0.389
975																																																																																					0.301	0.380	0.392	0.550	0.231	0.254	0.386	0.384	0.359	0.345	0.364	0.387
976																																																																																					0.299	0.377	0.389	0.543	0.230	0.253	0.383	0.381	0.356	0.343	0.362	0.385
977																																																																																					0.297	0.374	0.386	0.537	0.229	0.252	0.380	0.378	0.354	0.341	0.359	0.382
978																																																																																					0.296	0.372	0.384	0.532	0.229	0.252	0.378	0.377	0.352	0.339	0.358	0.380
979																																																																																					0.295	0.371	0.382	0.529	0.229	0.251	0.377	0.375	0.351	0.337	0.356	0.379
980																																																																																					0.295	0.371	0.381	0.526	0.228	0.251	0.376	0.374	0.350	0.337	0.356	0.377
981																																																																																					0.294	0.370	0.380	0.523	0.228	0.251	0.375	0.373	0.349	0.336	0.355	0.376
982																																																																																					0.293	0.368	0.378	0.519	0.227	0.250	0.373	0.371	0.347	0.335	0.353	0.373
983																																																																																					0.291	0.365	0.375	0.513	0.226	0.249	0.370	0.368	0.344	0.333	0.351	0.371
984																																																																																					0.288	0.360	0.370	0.504	0.224	0.247	0.365	0.364	0.341	0.329	0.347	0.368
985																																																																																					0.284	0.356	0.366	0.496	0.223	0.244	0.361	0.360	0.337	0.325	0.343	0.364
986																																																																																					0.282	0.353	0.363	0.490	0.221	0.243	0.358	0.357	0.334	0.322	0.340	0.361
987																																																																																					0.279	0.349	0.359	0.483	0.220	0.241	0.354	0.353	0.331	0.319	0.337	0.358
988																																																																																					0.276	0.345	0.355	0.477	0.218	0.239	0.351	0.349	0.327	0.316	0.333	0.354
989																																																																																					0.272	0.340	0.350	0.469	0.216	0.236	0.346	0.345	0.324	0.312	0.329	0.350
990																																																																																					0.270	0.337	0.347	0.463	0.214	0.234	0.343	0.342	0.321	0.309	0.327	0.347
991																																																																																					0.268	0.335	0.344	0.459	0.213	0.233	0.341	0.339	0.319	0.307	0.324	0.345
992																																																																																					0.268	0.334	0.343	0.455	0.212	0.232	0.339	0.338	0.317	0.305	0.323	0.343
993																																																																																					0.267	0.334	0.341	0.453	0.211	0.232	0.338	0.337	0.316	0.304	0.322	0.341
994																																																																																					0.266	0.332	0.340	0.450	0.210	0.231	0.337	0.335	0.315	0.303	0.321	0.339
995																																																																																					0.265	0.330	0.337	0.445	0.209	0.229	0.335	0.333	0.312	0.301	0.318	0.336
996																																																																																					0.262	0.326	0.334	0.440	0.207	0.227	0.331	0.329	0.309	0.299	0.316	0.334
997																																																																																					0.259	0.322	0.329	0.433	0.205	0.225	0.327	0.325	0.305	0.295	0.311	0.330
998																																																																																					0.256	0.317	0.325	0.426	0.203	0.222	0.323	0.321	0.302	0.291	0.307	0.326
999																																																																																					0.252	0.313	0.321	0.419	0.200	0.219	0.318	0.317	0.298	0.287	0.304	0.321

结果
	1	2	3	4	5	6	7	8	9	10	11	12
A	?????	?????	?????	?????	?????	?????	?????	?????	?????	?????	?????	?????	Mean Max OD [Spectrum]
B	?????	?????	?????	?????	?????	?????	?????	?????	?????	?????	?????	?????	Mean Max OD [Spectrum]
C	?????	?????	?????	?????	?????	?????	?????	?????	?????	?????	?????	?????	Mean Max OD [Spectrum]
D	?????	?????	?????	?????	?????	?????	?????	?????	?????	?????	?????	?????	Mean Max OD [Spectrum]
E	?????	?????	?????	?????	?????	?????	?????	?????	?????	?????	?????	?????	Mean Max OD [Spectrum]
F	?????	?????	?????	?????	?????	?????	?????	?????	?????	?????	?????	?????	Mean Max OD [Spectrum]
G	?????	?????	?????	?????	?????	?????	?????	?????	?????	?????	?????	?????	Mean Max OD [Spectrum]
H	1.669	1.939	2.089	2.319	1.577	2.122	1.951	2.053	1.945	1.973	2.146	2.262	Mean Max OD [Spectrum]

