

软件版本	3.11.19



实验文件路径:	
方案文件路径:	



板编号	板 1
日期	2023/3/28
时间	9:57:11
检测仪类型:	Epoch 2
检测仪序列号:	2205170B
检测类型	检测仪

程序详细信息

板类型	96 WELL PLATE
完成后弹出板	
检测	吸收光 光谱
	H1..H12
	开始: 400 nm,  停止: 999 nm,  步骤: 1 nm
	检测前校准
	检测速度: 正常,  延迟: 100 msec,  测量值/数据点: 8

Spectrum

波长	A1	A2	A3	A4	A5	A6	A7	A8	A9	A10	A11	A12	B1	B2	B3	B4	B5	B6	B7	B8	B9	B10	B11	B12	C1	C2	C3	C4	C5	C6	C7	C8	C9	C10	C11	C12	D1	D2	D3	D4	D5	D6	D7	D8	D9	D10	D11	D12	E1	E2	E3	E4	E5	E6	E7	E8	E9	E10	E11	E12	F1	F2	F3	F4	F5	F6	F7	F8	F9	F10	F11	F12	G1	G2	G3	G4	G5	G6	G7	G8	G9	G10	G11	G12	H1	H2	H3	H4	H5	H6	H7	H8	H9	H10	H11	H12
400																																																																																					0.578	0.658	0.582	0.623	0.694	0.522	0.583	0.538	0.517	0.519	0.489	0.459
401																																																																																					0.577	0.656	0.581	0.621	0.693	0.521	0.581	0.536	0.515	0.517	0.488	0.458
402																																																																																					0.575	0.654	0.579	0.620	0.691	0.519	0.580	0.535	0.514	0.516	0.487	0.457
403																																																																																					0.574	0.653	0.578	0.618	0.689	0.518	0.578	0.533	0.513	0.515	0.486	0.456
404																																																																																					0.573	0.651	0.576	0.616	0.687	0.516	0.577	0.532	0.511	0.513	0.484	0.455
405																																																																																					0.571	0.650	0.575	0.615	0.686	0.515	0.575	0.531	0.510	0.512	0.483	0.454
406																																																																																					0.570	0.648	0.574	0.614	0.684	0.514	0.574	0.530	0.509	0.511	0.482	0.452
407																																																																																					0.569	0.647	0.572	0.612	0.683	0.513	0.573	0.528	0.508	0.510	0.481	0.451
408																																																																																					0.567	0.645	0.571	0.611	0.681	0.512	0.571	0.527	0.507	0.509	0.480	0.450
409																																																																																					0.566	0.644	0.569	0.609	0.679	0.510	0.570	0.526	0.506	0.508	0.479	0.449
410																																																																																					0.565	0.642	0.568	0.608	0.678	0.509	0.568	0.525	0.504	0.506	0.478	0.448
411																																																																																					0.563	0.641	0.567	0.606	0.676	0.508	0.567	0.523	0.503	0.505	0.477	0.447
412																																																																																					0.562	0.639	0.565	0.605	0.674	0.507	0.566	0.522	0.502	0.504	0.476	0.446
413																																																																																					0.561	0.638	0.564	0.604	0.673	0.505	0.564	0.521	0.501	0.503	0.474	0.445
414																																																																																					0.559	0.637	0.563	0.602	0.671	0.504	0.563	0.520	0.500	0.501	0.473	0.444
415																																																																																					0.558	0.635	0.561	0.601	0.670	0.503	0.561	0.519	0.499	0.500	0.472	0.443
416																																																																																					0.557	0.634	0.560	0.599	0.668	0.502	0.560	0.517	0.498	0.499	0.471	0.442
417																																																																																					0.556	0.632	0.559	0.598	0.667	0.501	0.559	0.516	0.496	0.498	0.470	0.441
418																																																																																					0.555	0.631	0.558	0.597	0.665	0.500	0.558	0.515	0.495	0.497	0.469	0.440
419																																																																																					0.553	0.630	0.556	0.595	0.664	0.498	0.557	0.514	0.494	0.496	0.468	0.439
420																																																																																					0.552	0.629	0.555	0.594	0.662	0.497	0.555	0.513	0.493	0.495	0.467	0.438
421																																																																																					0.551	0.627	0.554	0.593	0.661	0.496	0.554	0.512	0.492	0.494	0.466	0.437
422																																																																																					0.550	0.626	0.553	0.592	0.659	0.495	0.553	0.511	0.491	0.493	0.465	0.436
423																																																																																					0.549	0.625	0.552	0.590	0.658	0.494	0.552	0.510	0.490	0.492	0.464	0.436
424																																																																																					0.548	0.624	0.551	0.589	0.657	0.494	0.551	0.509	0.489	0.491	0.464	0.435
425																																																																																					0.547	0.623	0.550	0.588	0.656	0.493	0.550	0.508	0.489	0.490	0.463	0.434
426																																																																																					0.546	0.622	0.549	0.587	0.654	0.492	0.549	0.507	0.488	0.489	0.462	0.433
427																																																																																					0.545	0.621	0.548	0.586	0.653	0.491	0.548	0.506	0.487	0.488	0.461	0.432
428																																																																																					0.544	0.620	0.546	0.585	0.652	0.490	0.547	0.505	0.486	0.487	0.460	0.431
429																																																																																					0.543	0.618	0.545	0.583	0.650	0.489	0.546	0.504	0.485	0.486	0.459	0.431
430																																																																																					0.542	0.617	0.544	0.582	0.649	0.488	0.545	0.503	0.484	0.485	0.458	0.430
431																																																																																					0.541	0.616	0.543	0.581	0.648	0.487	0.544	0.502	0.483	0.484	0.457	0.429
432																																																																																					0.540	0.615	0.542	0.580	0.646	0.486	0.543	0.501	0.482	0.484	0.456	0.428
433																																																																																					0.539	0.614	0.541	0.579	0.645	0.485	0.542	0.500	0.481	0.483	0.456	0.427
434																																																																																					0.538	0.613	0.540	0.577	0.644	0.484	0.541	0.499	0.480	0.482	0.455	0.427
435																																																																																					0.537	0.612	0.539	0.576	0.643	0.483	0.540	0.498	0.479	0.481	0.454	0.426
436																																																																																					0.536	0.611	0.538	0.575	0.641	0.482	0.539	0.497	0.478	0.480	0.453	0.425
437																																																																																					0.535	0.610	0.537	0.574	0.640	0.481	0.538	0.496	0.478	0.479	0.452	0.424
438																																																																																					0.534	0.609	0.536	0.573	0.639	0.480	0.537	0.496	0.477	0.478	0.451	0.424
439																																																																																					0.533	0.608	0.535	0.572	0.638	0.479	0.536	0.495	0.476	0.477	0.451	0.423
440																																																																																					0.532	0.607	0.534	0.571	0.637	0.478	0.535	0.494	0.475	0.477	0.450	0.422
441																																																																																					0.532	0.606	0.533	0.570	0.636	0.478	0.534	0.493	0.474	0.476	0.449	0.421
442																																																																																					0.531	0.605	0.532	0.569	0.635	0.477	0.533	0.492	0.474	0.475	0.449	0.421
443																																																																																					0.530	0.604	0.531	0.568	0.634	0.476	0.532	0.492	0.473	0.475	0.448	0.420
444																																																																																					0.529	0.603	0.530	0.567	0.632	0.475	0.531	0.491	0.472	0.474	0.447	0.420
445																																																																																					0.528	0.602	0.529	0.566	0.631	0.475	0.530	0.490	0.472	0.473	0.447	0.419
446																																																																																					0.528	0.601	0.529	0.565	0.630	0.474	0.529	0.489	0.471	0.472	0.446	0.418
447																																																																																					0.527	0.601	0.528	0.564	0.629	0.473	0.528	0.489	0.470	0.472	0.445	0.418
448																																																																																					0.526	0.600	0.527	0.564	0.628	0.472	0.527	0.488	0.470	0.471	0.445	0.417
449																																																																																					0.526	0.599	0.526	0.563	0.628	0.472	0.527	0.487	0.469	0.471	0.444	0.417
450																																																																																					0.525	0.598	0.525	0.562	0.627	0.471	0.526	0.487	0.469	0.470	0.444	0.416
451																																																																																					0.524	0.598	0.524	0.561	0.626	0.470	0.525	0.486	0.468	0.469	0.443	0.416
452																																																																																					0.524	0.597	0.524	0.560	0.625	0.470	0.524	0.485	0.467	0.469	0.443	0.415
453																																																																																					0.523	0.596	0.523	0.559	0.624	0.469	0.523	0.485	0.467	0.468	0.442	0.415
454																																																																																					0.523	0.596	0.522	0.559	0.623	0.469	0.523	0.484	0.466	0.468	0.442	0.414
455																																																																																					0.522	0.595	0.521	0.558	0.622	0.468	0.522	0.484	0.466	0.467	0.441	0.414
456																																																																																					0.522	0.595	0.521	0.557	0.622	0.468	0.521	0.483	0.465	0.467	0.441	0.414
457																																																																																					0.522	0.595	0.520	0.557	0.621	0.467	0.521	0.483	0.465	0.467	0.440	0.413
458																																																																																					0.521	0.594	0.520	0.556	0.620	0.467	0.520	0.482	0.464	0.466	0.440	0.413
459																																																																																					0.521	0.594	0.519	0.555	0.620	0.466	0.520	0.482	0.464	0.466	0.440	0.413
460																																																																																					0.521	0.594	0.519	0.555	0.619	0.466	0.519	0.482	0.464	0.466	0.439	0.413
461																																																																																					0.521	0.594	0.518	0.555	0.619	0.466	0.519	0.481	0.464	0.466	0.439	0.412
462																																																																																					0.521	0.593	0.518	0.554	0.619	0.465	0.519	0.481	0.464	0.466	0.439	0.412
463																																																																																					0.521	0.593	0.518	0.554	0.618	0.465	0.518	0.481	0.463	0.465	0.439	0.412
464																																																																																					0.521	0.594	0.517	0.554	0.618	0.465	0.518	0.481	0.463	0.465	0.439	0.412
465																																																																																					0.521	0.594	0.517	0.554	0.618	0.465	0.518	0.481	0.463	0.465	0.439	0.412
466																																																																																					0.521	0.594	0.517	0.554	0.618	0.465	0.518	0.481	0.463	0.465	0.439	0.412
467																																																																																					0.521	0.594	0.517	0.553	0.618	0.465	0.518	0.481	0.463	0.466	0.439	0.412
468																																																																																					0.521	0.595	0.517	0.554	0.618	0.465	0.518	0.481	0.464	0.466	0.439	0.412
469																																																																																					0.522	0.595	0.517	0.554	0.618	0.465	0.518	0.481	0.464	0.466	0.440	0.413
470																																																																																					0.522	0.596	0.517	0.554	0.618	0.465	0.518	0.482	0.464	0.466	0.440	0.413
471																																																																																					0.523	0.596	0.517	0.554	0.619	0.466	0.519	0.482	0.464	0.467	0.440	0.413
472																																																																																					0.524	0.597	0.518	0.555	0.619	0.466	0.519	0.483	0.465	0.468	0.441	0.414
473																																																																																					0.525	0.598	0.518	0.555	0.620	0.467	0.520	0.483	0.465	0.468	0.441	0.415
474																																																																																					0.526	0.600	0.519	0.556	0.621	0.467	0.520	0.484	0.466	0.469	0.442	0.415
475																																																																																					0.527	0.601	0.519	0.557	0.622	0.468	0.521	0.485	0.467	0.470	0.443	0.416
476																																																																																					0.528	0.602	0.520	0.558	0.623	0.469	0.522	0.486	0.468	0.471	0.444	0.417
477																																																																																					0.529	0.604	0.521	0.559	0.624	0.470	0.523	0.487	0.469	0.472	0.445	0.418
478																																																																																					0.531	0.606	0.522	0.560	0.626	0.471	0.525	0.488	0.470	0.473	0.446	0.419
479																																																																																					0.533	0.609	0.524	0.562	0.628	0.472	0.526	0.490	0.472	0.475	0.448	0.421
480																																																																																					0.535	0.611	0.525	0.564	0.630	0.474	0.528	0.491	0.473	0.477	0.449	0.422
481																																																																																					0.538	0.614	0.527	0.566	0.632	0.476	0.530	0.494	0.475	0.479	0.451	0.424
482																																																																																					0.541	0.618	0.530	0.569	0.635	0.478	0.532	0.496	0.477	0.481	0.453	0.426
483																																																																																					0.543	0.621	0.531	0.571	0.638	0.479	0.534	0.498	0.479	0.483	0.455	0.428
484																																																																																					0.545	0.624	0.533	0.573	0.640	0.481	0.536	0.500	0.481	0.485	0.457	0.429
485																																																																																					0.548	0.626	0.535	0.575	0.642	0.483	0.538	0.502	0.483	0.487	0.459	0.431
486																																																																																					0.551	0.630	0.537	0.577	0.645	0.485	0.540	0.504	0.485	0.489	0.461	0.433
487																																																																																					0.556	0.635	0.541	0.581	0.650	0.488	0.544	0.507	0.489	0.493	0.464	0.436
488																																																																																					0.560	0.640	0.544	0.584	0.653	0.491	0.547	0.510	0.491	0.495	0.467	0.439
489																																																																																					0.564	0.644	0.547	0.587	0.657	0.494	0.550	0.513	0.494	0.498	0.469	0.441
490																																																																																					0.568	0.651	0.550	0.592	0.662	0.497	0.554	0.517	0.497	0.502	0.473	0.444
491																																																																																					0.574	0.657	0.555	0.596	0.667	0.501	0.558	0.521	0.502	0.506	0.477	0.448
492																																																																																					0.579	0.663	0.558	0.600	0.671	0.504	0.562	0.524	0.505	0.509	0.480	0.451
493																																																																																					0.584	0.668	0.561	0.604	0.675	0.507	0.565	0.528	0.508	0.513	0.483	0.454
494																																																																																					0.589	0.675	0.566	0.608	0.681	0.511	0.569	0.532	0.512	0.517	0.486	0.457
495																																																																																					0.596	0.683	0.571	0.614	0.687	0.515	0.575	0.537	0.517	0.522	0.491	0.462
496																																																																																					0.604	0.692	0.576	0.620	0.694	0.520	0.580	0.542	0.521	0.527	0.496	0.466
497																																																																																					0.611	0.701	0.581	0.625	0.700	0.524	0.585	0.547	0.526	0.532	0.500	0.470
498																																																																																					0.617	0.707	0.585	0.629	0.704	0.528	0.589	0.551	0.529	0.535	0.503	0.473
499																																																																																					0.623	0.714	0.588	0.633	0.709	0.531	0.593	0.554	0.533	0.539	0.507	0.477
500																																																																																					0.629	0.722	0.592	0.638	0.714	0.535	0.597	0.558	0.537	0.543	0.511	0.480
501																																																																																					0.636	0.730	0.597	0.642	0.720	0.539	0.601	0.563	0.541	0.547	0.515	0.484
502																																																																																					0.643	0.739	0.601	0.647	0.725	0.542	0.605	0.567	0.545	0.551	0.519	0.487
503																																																																																					0.650	0.747	0.604	0.651	0.729	0.546	0.609	0.571	0.549	0.555	0.522	0.491
504																																																																																					0.657	0.755	0.608	0.655	0.734	0.549	0.613	0.575	0.552	0.559	0.526	0.494
505																																																																																					0.663	0.762	0.611	0.659	0.738	0.552	0.616	0.578	0.555	0.562	0.529	0.497
506																																																																																					0.669	0.770	0.614	0.662	0.742	0.555	0.619	0.581	0.558	0.566	0.532	0.500
507																																																																																					0.675	0.776	0.616	0.665	0.745	0.557	0.622	0.584	0.561	0.568	0.535	0.502
508																																																																																					0.680	0.783	0.618	0.667	0.748	0.559	0.624	0.586	0.564	0.571	0.537	0.504
509																																																																																					0.685	0.789	0.620	0.669	0.750	0.561	0.625	0.588	0.566	0.573	0.539	0.507
510																																																																																					0.690	0.794	0.621	0.671	0.752	0.562	0.627	0.590	0.567	0.575	0.541	0.508
511																																																																																					0.694	0.799	0.622	0.671	0.753	0.563	0.628	0.591	0.569	0.577	0.542	0.510
512																																																																																					0.697	0.803	0.622	0.672	0.753	0.564	0.628	0.592	0.570	0.578	0.543	0.511
513																																																																																					0.699	0.806	0.621	0.672	0.753	0.564	0.628	0.592	0.570	0.578	0.544	0.511
514																																																																																					0.701	0.808	0.620	0.671	0.753	0.564	0.628	0.592	0.570	0.579	0.544	0.511
515																																																																																					0.703	0.810	0.619	0.670	0.752	0.563	0.627	0.592	0.570	0.579	0.544	0.511
516																																																																																					0.703	0.811	0.617	0.669	0.750	0.562	0.625	0.591	0.569	0.578	0.544	0.511
517																																																																																					0.704	0.811	0.615	0.667	0.748	0.561	0.624	0.590	0.568	0.577	0.543	0.511
518																																																																																					0.703	0.811	0.613	0.665	0.746	0.559	0.622	0.589	0.567	0.576	0.542	0.510
519																																																																																					0.703	0.810	0.610	0.662	0.744	0.558	0.620	0.587	0.566	0.575	0.541	0.509
520																																																																																					0.701	0.808	0.608	0.660	0.741	0.556	0.617	0.586	0.565	0.574	0.540	0.508
521																																																																																					0.699	0.806	0.604	0.657	0.738	0.554	0.615	0.584	0.563	0.572	0.538	0.506
522																																																																																					0.697	0.804	0.601	0.653	0.734	0.551	0.612	0.581	0.560	0.570	0.536	0.504
523																																																																																					0.694	0.800	0.597	0.649	0.729	0.548	0.608	0.578	0.558	0.567	0.534	0.502
524																																																																																					0.690	0.796	0.592	0.645	0.725	0.545	0.604	0.575	0.555	0.565	0.532	0.500
525																																																																																					0.687	0.792	0.588	0.640	0.720	0.541	0.600	0.572	0.552	0.562	0.529	0.497
526																																																																																					0.682	0.787	0.583	0.636	0.715	0.538	0.596	0.568	0.548	0.559	0.526	0.495
527																																																																																					0.678	0.782	0.578	0.631	0.709	0.534	0.592	0.564	0.545	0.555	0.523	0.492
528																																																																																					0.675	0.778	0.575	0.627	0.705	0.531	0.588	0.561	0.542	0.553	0.520	0.489
529																																																																																					0.671	0.774	0.571	0.623	0.701	0.528	0.585	0.558	0.539	0.550	0.518	0.487
530																																																																																					0.667	0.769	0.567	0.619	0.697	0.525	0.581	0.555	0.537	0.547	0.515	0.484
531																																																																																					0.663	0.764	0.562	0.614	0.691	0.521	0.577	0.551	0.533	0.543	0.512	0.481
532																																																																																					0.657	0.757	0.556	0.608	0.684	0.516	0.571	0.546	0.528	0.538	0.507	0.477
533																																																																																					0.652	0.751	0.550	0.603	0.678	0.512	0.566	0.542	0.524	0.534	0.504	0.474
534																																																																																					0.648	0.746	0.546	0.598	0.673	0.508	0.562	0.538	0.520	0.531	0.500	0.471
535																																																																																					0.642	0.741	0.541	0.592	0.667	0.503	0.557	0.533	0.516	0.526	0.496	0.467
536																																																																																					0.637	0.735	0.535	0.586	0.660	0.499	0.552	0.528	0.512	0.522	0.492	0.463
537																																																																																					0.633	0.729	0.529	0.581	0.654	0.494	0.547	0.524	0.507	0.517	0.488	0.459
538																																																																																					0.628	0.723	0.524	0.575	0.647	0.489	0.541	0.518	0.502	0.512	0.483	0.455
539																																																																																					0.623	0.718	0.519	0.569	0.641	0.485	0.536	0.514	0.498	0.508	0.479	0.451
540																																																																																					0.618	0.712	0.512	0.563	0.633	0.479	0.531	0.508	0.493	0.502	0.474	0.446
541																																																																																					0.614	0.708	0.507	0.557	0.627	0.475	0.526	0.503	0.488	0.498	0.470	0.442
542																																																																																					0.611	0.704	0.502	0.552	0.621	0.470	0.521	0.499	0.484	0.494	0.466	0.439
543																																																																																					0.608	0.700	0.497	0.547	0.615	0.466	0.516	0.495	0.480	0.489	0.462	0.435
544																																																																																					0.604	0.695	0.492	0.540	0.608	0.461	0.511	0.489	0.475	0.484	0.457	0.430
545																																																																																					0.600	0.691	0.485	0.534	0.601	0.456	0.505	0.483	0.469	0.479	0.452	0.425
546																																																																																					0.596	0.687	0.479	0.527	0.594	0.450	0.499	0.478	0.464	0.473	0.447	0.420
547																																																																																					0.593	0.683	0.474	0.521	0.587	0.445	0.494	0.472	0.459	0.468	0.442	0.416
548																																																																																					0.591	0.680	0.468	0.515	0.580	0.440	0.488	0.467	0.454	0.462	0.437	0.411
549																																																																																					0.588	0.678	0.463	0.509	0.573	0.435	0.483	0.462	0.449	0.457	0.432	0.407
550																																																																																					0.586	0.675	0.457	0.502	0.565	0.429	0.477	0.455	0.443	0.451	0.427	0.402
551																																																																																					0.584	0.673	0.451	0.496	0.558	0.424	0.471	0.450	0.438	0.446	0.422	0.397
552																																																																																					0.582	0.671	0.445	0.489	0.550	0.418	0.465	0.444	0.432	0.440	0.416	0.392
553																																																																																					0.581	0.669	0.439	0.483	0.543	0.413	0.459	0.438	0.426	0.434	0.411	0.387
554																																																																																					0.579	0.668	0.433	0.476	0.535	0.408	0.453	0.432	0.420	0.428	0.405	0.382
555																																																																																					0.578	0.667	0.427	0.470	0.528	0.403	0.448	0.427	0.415	0.422	0.400	0.377
556																																																																																					0.578	0.666	0.421	0.463	0.520	0.397	0.441	0.420	0.409	0.416	0.394	0.371
557																																																																																					0.577	0.666	0.415	0.457	0.513	0.392	0.435	0.414	0.404	0.410	0.389	0.366
558																																																																																					0.577	0.666	0.409	0.449	0.505	0.386	0.429	0.408	0.397	0.404	0.383	0.360
559																																																																																					0.578	0.667	0.403	0.443	0.497	0.380	0.422	0.401	0.391	0.397	0.377	0.355
560																																																																																					0.578	0.668	0.397	0.435	0.489	0.374	0.416	0.395	0.385	0.391	0.370	0.349
561																																																																																					0.579	0.669	0.391	0.429	0.481	0.368	0.409	0.389	0.379	0.385	0.365	0.344
562																																																																																					0.580	0.671	0.386	0.423	0.475	0.363	0.404	0.383	0.374	0.379	0.360	0.339
563																																																																																					0.582	0.672	0.381	0.418	0.469	0.359	0.399	0.379	0.369	0.374	0.355	0.335
564																																																																																					0.583	0.675	0.376	0.411	0.462	0.353	0.393	0.373	0.363	0.368	0.349	0.330
565																																																																																					0.586	0.678	0.369	0.404	0.454	0.348	0.387	0.366	0.357	0.362	0.344	0.324
566																																																																																					0.588	0.681	0.364	0.399	0.447	0.343	0.381	0.361	0.352	0.356	0.338	0.319
567																																																																																					0.591	0.684	0.359	0.393	0.440	0.338	0.376	0.355	0.347	0.351	0.333	0.314
568																																																																																					0.594	0.688	0.354	0.387	0.434	0.333	0.370	0.350	0.342	0.346	0.328	0.310
569																																																																																					0.598	0.692	0.349	0.381	0.427	0.328	0.365	0.344	0.336	0.340	0.323	0.305
570																																																																																					0.601	0.697	0.344	0.376	0.421	0.323	0.359	0.339	0.331	0.335	0.318	0.300
571																																																																																					0.606	0.702	0.339	0.369	0.414	0.318	0.353	0.333	0.325	0.329	0.312	0.295
572																																																																																					0.610	0.708	0.335	0.364	0.407	0.314	0.348	0.328	0.320	0.323	0.307	0.290
573																																																																																					0.615	0.713	0.330	0.359	0.401	0.309	0.343	0.323	0.316	0.318	0.303	0.286
574																																																																																					0.619	0.719	0.326	0.354	0.396	0.305	0.338	0.318	0.311	0.313	0.298	0.281
575																																																																																					0.625	0.726	0.322	0.349	0.390	0.301	0.333	0.313	0.306	0.308	0.293	0.277
576																																																																																					0.630	0.732	0.318	0.344	0.385	0.297	0.329	0.309	0.302	0.304	0.289	0.273
577																																																																																					0.636	0.739	0.314	0.340	0.380	0.293	0.325	0.305	0.298	0.300	0.285	0.270
578																																																																																					0.642	0.747	0.310	0.335	0.374	0.289	0.320	0.300	0.293	0.295	0.281	0.265
579																																																																																					0.649	0.755	0.306	0.330	0.368	0.285	0.315	0.295	0.289	0.290	0.276	0.261
580																																																																																					0.656	0.764	0.302	0.325	0.363	0.281	0.310	0.291	0.284	0.285	0.272	0.257
581																																																																																					0.664	0.772	0.298	0.321	0.358	0.277	0.306	0.286	0.280	0.281	0.267	0.253
582																																																																																					0.671	0.782	0.295	0.317	0.353	0.274	0.302	0.282	0.276	0.277	0.264	0.249
583																																																																																					0.679	0.791	0.291	0.312	0.348	0.270	0.297	0.278	0.272	0.272	0.259	0.245
584																																																																																					0.688	0.802	0.288	0.308	0.343	0.266	0.293	0.274	0.268	0.268	0.256	0.242
585																																																																																					0.697	0.812	0.284	0.304	0.338	0.263	0.289	0.270	0.264	0.264	0.252	0.238
586																																																																																					0.706	0.823	0.281	0.300	0.333	0.259	0.285	0.266	0.260	0.260	0.248	0.234
587																																																																																					0.716	0.835	0.278	0.296	0.329	0.256	0.281	0.262	0.257	0.256	0.244	0.231
588																																																																																					0.725	0.846	0.275	0.293	0.325	0.253	0.278	0.259	0.253	0.253	0.241	0.228
589																																																																																					0.734	0.857	0.272	0.289	0.321	0.250	0.274	0.256	0.250	0.249	0.238	0.225
590																																																																																					0.744	0.869	0.270	0.286	0.317	0.247	0.271	0.252	0.247	0.246	0.235	0.222
591																																																																																					0.754	0.881	0.267	0.283	0.314	0.245	0.268	0.249	0.243	0.242	0.231	0.219
592																																																																																					0.763	0.892	0.265	0.280	0.310	0.242	0.265	0.246	0.241	0.240	0.229	0.216
593																																																																																					0.774	0.904	0.262	0.277	0.307	0.240	0.262	0.243	0.238	0.237	0.226	0.214
594																																																																																					0.785	0.916	0.260	0.274	0.303	0.237	0.259	0.240	0.235	0.234	0.223	0.211
595																																																																																					0.797	0.930	0.258	0.271	0.300	0.234	0.256	0.237	0.232	0.231	0.220	0.208
596																																																																																					0.807	0.943	0.256	0.269	0.297	0.232	0.253	0.235	0.230	0.228	0.217	0.206
597																																																																																					0.818	0.955	0.254	0.266	0.294	0.230	0.251	0.233	0.228	0.226	0.215	0.204
598																																																																																					0.828	0.968	0.252	0.264	0.291	0.228	0.248	0.230	0.225	0.223	0.213	0.201
599																																																																																					0.840	0.981	0.250	0.262	0.289	0.226	0.246	0.228	0.223	0.220	0.210	0.199
600																																																																																					0.852	0.995	0.248	0.259	0.286	0.224	0.243	0.225	0.220	0.218	0.208	0.197
601																																																																																					0.866	1.011	0.246	0.256	0.283	0.222	0.241	0.222	0.218	0.215	0.205	0.194
602																																																																																					0.879	1.026	0.244	0.254	0.280	0.220	0.239	0.220	0.215	0.212	0.203	0.192
603																																																																																					0.890	1.039	0.243	0.252	0.278	0.218	0.236	0.218	0.213	0.210	0.201	0.190
604																																																																																					0.901	1.052	0.241	0.251	0.276	0.216	0.235	0.216	0.211	0.208	0.199	0.188
605																																																																																					0.912	1.064	0.240	0.249	0.274	0.214	0.233	0.214	0.210	0.206	0.197	0.186
606																																																																																					0.923	1.077	0.239	0.247	0.272	0.213	0.231	0.212	0.208	0.205	0.195	0.185
607																																																																																					0.935	1.089	0.237	0.245	0.270	0.212	0.229	0.211	0.206	0.203	0.194	0.183
608																																																																																					0.948	1.105	0.236	0.243	0.268	0.210	0.227	0.208	0.204	0.201	0.191	0.181
609																																																																																					0.960	1.118	0.235	0.242	0.266	0.208	0.225	0.207	0.202	0.199	0.190	0.179
610																																																																																					0.970	1.129	0.234	0.240	0.264	0.207	0.224	0.205	0.201	0.197	0.188	0.178
611																																																																																					0.980	1.141	0.233	0.239	0.262	0.206	0.222	0.204	0.200	0.196	0.187	0.176
612																																																																																					0.992	1.154	0.232	0.238	0.261	0.204	0.221	0.202	0.198	0.194	0.185	0.175
613																																																																																					1.003	1.167	0.231	0.236	0.259	0.203	0.219	0.201	0.196	0.192	0.183	0.173
614																																																																																					1.014	1.179	0.230	0.235	0.257	0.202	0.218	0.199	0.195	0.191	0.182	0.172
615																																																																																					1.025	1.191	0.229	0.233	0.256	0.201	0.216	0.198	0.193	0.189	0.180	0.171
616																																																																																					1.036	1.203	0.228	0.232	0.254	0.200	0.215	0.196	0.192	0.188	0.179	0.169
617																																																																																					1.046	1.214	0.227	0.231	0.253	0.198	0.213	0.195	0.191	0.186	0.177	0.168
618																																																																																					1.056	1.224	0.227	0.230	0.252	0.197	0.212	0.194	0.190	0.185	0.176	0.167
619																																																																																					1.065	1.234	0.226	0.229	0.250	0.197	0.211	0.192	0.188	0.184	0.175	0.165
620																																																																																					1.076	1.246	0.225	0.228	0.249	0.195	0.210	0.191	0.187	0.182	0.174	0.164
621																																																																																					1.085	1.255	0.225	0.227	0.248	0.194	0.209	0.190	0.186	0.181	0.172	0.163
622																																																																																					1.093	1.264	0.224	0.226	0.247	0.193	0.207	0.189	0.185	0.180	0.171	0.162
623																																																																																					1.101	1.273	0.224	0.225	0.246	0.193	0.207	0.188	0.184	0.179	0.170	0.161
624																																																																																					1.109	1.281	0.223	0.224	0.245	0.192	0.206	0.187	0.183	0.178	0.169	0.160
625																																																																																					1.116	1.288	0.223	0.224	0.244	0.191	0.205	0.186	0.182	0.177	0.168	0.159
626																																																																																					1.122	1.294	0.223	0.223	0.243	0.190	0.204	0.185	0.181	0.176	0.167	0.158
627																																																																																					1.129	1.300	0.222	0.223	0.242	0.190	0.203	0.184	0.180	0.174	0.166	0.157
628																																																																																					1.134	1.305	0.222	0.222	0.241	0.189	0.202	0.183	0.179	0.174	0.165	0.156
629																																																																																					1.139	1.310	0.222	0.221	0.241	0.188	0.202	0.182	0.178	0.173	0.164	0.155
630																																																																																					1.143	1.315	0.222	0.221	0.240	0.188	0.201	0.182	0.177	0.172	0.164	0.154
631																																																																																					1.147	1.318	0.222	0.221	0.240	0.187	0.200	0.181	0.177	0.171	0.163	0.154
632																																																																																					1.150	1.321	0.221	0.220	0.239	0.187	0.200	0.180	0.176	0.170	0.162	0.153
633																																																																																					1.153	1.323	0.222	0.220	0.238	0.186	0.199	0.180	0.175	0.170	0.161	0.152
634																																																																																					1.156	1.325	0.222	0.219	0.238	0.186	0.198	0.179	0.175	0.169	0.161	0.151
635																																																																																					1.157	1.326	0.222	0.219	0.237	0.185	0.198	0.178	0.174	0.168	0.160	0.151
636																																																																																					1.159	1.326	0.222	0.219	0.237	0.185	0.197	0.178	0.173	0.168	0.159	0.150
637																																																																																					1.159	1.327	0.222	0.219	0.237	0.185	0.197	0.177	0.173	0.167	0.159	0.149
638																																																																																					1.160	1.326	0.222	0.219	0.237	0.184	0.197	0.177	0.172	0.166	0.158	0.149
639																																																																																					1.159	1.324	0.223	0.219	0.236	0.184	0.196	0.176	0.172	0.166	0.157	0.148
640																																																																																					1.159	1.323	0.223	0.218	0.236	0.184	0.196	0.176	0.171	0.165	0.157	0.148
641																																																																																					1.157	1.320	0.223	0.218	0.236	0.184	0.195	0.175	0.171	0.165	0.156	0.147
642																																																																																					1.156	1.317	0.224	0.219	0.236	0.183	0.195	0.175	0.171	0.164	0.156	0.147
643																																																																																					1.153	1.314	0.224	0.219	0.236	0.183	0.195	0.175	0.170	0.164	0.155	0.146
644																																																																																					1.151	1.310	0.225	0.219	0.236	0.183	0.195	0.174	0.170	0.164	0.155	0.146
645																																																																																					1.147	1.305	0.226	0.219	0.236	0.183	0.195	0.174	0.169	0.163	0.154	0.145
646																																																																																					1.144	1.300	0.226	0.219	0.236	0.183	0.194	0.174	0.169	0.163	0.154	0.145
647																																																																																					1.139	1.294	0.227	0.219	0.236	0.183	0.194	0.174	0.169	0.162	0.154	0.144
648																																																																																					1.135	1.288	0.228	0.220	0.236	0.183	0.194	0.173	0.169	0.162	0.153	0.144
649																																																																																					1.130	1.282	0.229	0.220	0.236	0.183	0.194	0.173	0.168	0.162	0.153	0.143
650																																																																																					1.125	1.275	0.230	0.220	0.237	0.183	0.194	0.173	0.168	0.162	0.153	0.143
651																																																																																					1.120	1.268	0.231	0.221	0.237	0.183	0.194	0.173	0.168	0.161	0.152	0.143
652																																																																																					1.114	1.261	0.232	0.221	0.237	0.184	0.194	0.173	0.168	0.161	0.152	0.143
653																																																																																					1.108	1.254	0.232	0.222	0.238	0.184	0.194	0.173	0.168	0.161	0.152	0.142
654																																																																																					1.101	1.245	0.234	0.223	0.238	0.184	0.194	0.173	0.168	0.161	0.152	0.142
655																																																																																					1.094	1.236	0.235	0.223	0.239	0.184	0.195	0.173	0.168	0.161	0.152	0.142
656																																																																																					1.087	1.228	0.236	0.224	0.240	0.184	0.195	0.173	0.168	0.161	0.151	0.142
657																																																																																					1.079	1.218	0.238	0.225	0.240	0.185	0.195	0.173	0.168	0.161	0.151	0.142
658																																																																																					1.071	1.209	0.239	0.226	0.241	0.185	0.195	0.173	0.168	0.161	0.151	0.142
659																																																																																					1.063	1.199	0.241	0.226	0.242	0.186	0.196	0.173	0.168	0.161	0.151	0.141
660																																																																																					1.056	1.190	0.242	0.227	0.242	0.186	0.196	0.173	0.168	0.160	0.151	0.141
661																																																																																					1.047	1.179	0.244	0.228	0.243	0.186	0.196	0.174	0.168	0.160	0.151	0.141
662																																																																																					1.038	1.168	0.245	0.229	0.244	0.187	0.197	0.174	0.168	0.161	0.151	0.141
663																																																																																					1.029	1.158	0.247	0.230	0.245	0.188	0.197	0.174	0.168	0.161	0.151	0.141
664																																																																																					1.020	1.147	0.249	0.231	0.246	0.188	0.198	0.174	0.168	0.161	0.151	0.141
665																																																																																					1.011	1.135	0.251	0.233	0.247	0.189	0.198	0.175	0.169	0.161	0.151	0.141
666																																																																																					1.002	1.125	0.253	0.234	0.248	0.189	0.199	0.175	0.169	0.161	0.151	0.141
667																																																																																					0.991	1.112	0.255	0.235	0.249	0.190	0.199	0.175	0.169	0.161	0.151	0.141
668																																																																																					0.981	1.100	0.258	0.236	0.251	0.191	0.200	0.176	0.169	0.161	0.151	0.141
669																																																																																					0.970	1.088	0.260	0.238	0.252	0.192	0.201	0.176	0.170	0.162	0.152	0.141
670																																																																																					0.960	1.076	0.262	0.239	0.254	0.193	0.201	0.177	0.170	0.162	0.152	0.141
671																																																																																					0.949	1.063	0.265	0.241	0.255	0.193	0.202	0.177	0.170	0.162	0.152	0.142
672																																																																																					0.939	1.051	0.267	0.243	0.256	0.194	0.203	0.178	0.171	0.162	0.152	0.142
673																																																																																					0.928	1.038	0.270	0.245	0.258	0.195	0.204	0.178	0.171	0.163	0.152	0.142
674																																																																																					0.916	1.025	0.273	0.246	0.260	0.196	0.205	0.179	0.172	0.163	0.153	0.142
675																																																																																					0.906	1.013	0.276	0.248	0.262	0.198	0.206	0.180	0.172	0.164	0.153	0.142
676																																																																																					0.894	0.999	0.280	0.250	0.264	0.199	0.207	0.181	0.173	0.164	0.153	0.143
677																																																																																					0.882	0.986	0.283	0.253	0.266	0.200	0.208	0.181	0.173	0.165	0.154	0.143
678																																																																																					0.871	0.973	0.286	0.254	0.268	0.201	0.209	0.182	0.174	0.165	0.154	0.143
679																																																																																					0.860	0.960	0.290	0.257	0.270	0.202	0.210	0.183	0.175	0.166	0.155	0.143
680																																																																																					0.848	0.947	0.293	0.259	0.272	0.204	0.211	0.184	0.175	0.167	0.155	0.144
681																																																																																					0.836	0.933	0.297	0.262	0.274	0.205	0.212	0.185	0.176	0.167	0.155	0.144
682																																																																																					0.825	0.920	0.301	0.264	0.277	0.206	0.213	0.186	0.177	0.168	0.156	0.144
683																																																																																					0.813	0.907	0.305	0.267	0.279	0.208	0.215	0.187	0.177	0.169	0.157	0.145
684																																																																																					0.802	0.894	0.309	0.270	0.282	0.210	0.216	0.188	0.178	0.169	0.157	0.145
685																																																																																					0.790	0.881	0.314	0.273	0.284	0.211	0.218	0.189	0.179	0.170	0.158	0.146
686																																																																																					0.777	0.867	0.319	0.276	0.287	0.213	0.220	0.190	0.180	0.171	0.158	0.147
687																																																																																					0.765	0.853	0.324	0.280	0.291	0.215	0.221	0.192	0.181	0.172	0.159	0.147
688																																																																																					0.753	0.840	0.330	0.283	0.294	0.217	0.223	0.193	0.182	0.173	0.160	0.148
689																																																																																					0.742	0.827	0.335	0.286	0.297	0.219	0.225	0.194	0.183	0.174	0.161	0.148
690																																																																																					0.731	0.814	0.341	0.290	0.301	0.221	0.227	0.196	0.185	0.175	0.161	0.149
691																																																																																					0.720	0.803	0.346	0.293	0.303	0.223	0.229	0.197	0.186	0.175	0.162	0.150
692																																																																																					0.710	0.790	0.352	0.297	0.307	0.226	0.231	0.199	0.187	0.177	0.163	0.151
693																																																																																					0.698	0.777	0.358	0.301	0.311	0.228	0.233	0.200	0.188	0.178	0.164	0.151
694																																																																																					0.687	0.765	0.365	0.306	0.315	0.231	0.235	0.202	0.190	0.179	0.165	0.152
695																																																																																					0.677	0.753	0.371	0.310	0.319	0.233	0.237	0.204	0.191	0.180	0.166	0.153
696																																																																																					0.665	0.741	0.378	0.315	0.324	0.236	0.240	0.206	0.192	0.182	0.167	0.154
697																																																																																					0.654	0.728	0.386	0.320	0.329	0.239	0.242	0.208	0.194	0.183	0.168	0.155
698																																																																																					0.645	0.718	0.393	0.324	0.333	0.241	0.245	0.209	0.196	0.185	0.169	0.156
699																																																																																					0.635	0.707	0.400	0.329	0.337	0.244	0.247	0.211	0.197	0.186	0.170	0.157
700																																																																																					0.626	0.697	0.407	0.334	0.342	0.247	0.250	0.213	0.199	0.187	0.172	0.158
701																																																																																					0.616	0.686	0.415	0.339	0.347	0.250	0.253	0.216	0.200	0.189	0.173	0.159
702																																																																																					0.607	0.675	0.423	0.345	0.352	0.253	0.256	0.218	0.202	0.191	0.174	0.160
703																																																																																					0.597	0.663	0.433	0.351	0.358	0.257	0.259	0.221	0.205	0.192	0.175	0.161
704																																																																																					0.587	0.653	0.442	0.357	0.364	0.261	0.262	0.223	0.207	0.194	0.177	0.162
705																																																																																					0.578	0.643	0.451	0.364	0.370	0.264	0.265	0.225	0.209	0.196	0.178	0.163
706																																																																																					0.570	0.633	0.460	0.370	0.376	0.268	0.269	0.228	0.211	0.198	0.180	0.165
707																																																																																					0.561	0.623	0.470	0.377	0.382	0.272	0.272	0.231	0.213	0.200	0.181	0.166
708																																																																																					0.552	0.614	0.480	0.384	0.388	0.276	0.276	0.234	0.216	0.202	0.183	0.167
709																																																																																					0.544	0.603	0.490	0.391	0.396	0.281	0.280	0.237	0.218	0.204	0.185	0.169
710																																																																																					0.536	0.594	0.500	0.398	0.402	0.285	0.284	0.239	0.220	0.206	0.187	0.170
711																																																																																					0.527	0.585	0.511	0.406	0.409	0.289	0.288	0.243	0.224	0.209	0.189	0.172
712																																																																																					0.520	0.577	0.521	0.413	0.416	0.294	0.292	0.246	0.226	0.211	0.191	0.173
713																																																																																					0.512	0.568	0.533	0.421	0.424	0.298	0.296	0.249	0.229	0.214	0.193	0.175
714																																																																																					0.504	0.558	0.544	0.429	0.432	0.303	0.301	0.253	0.231	0.216	0.195	0.177
715																																																																																					0.496	0.550	0.557	0.438	0.440	0.309	0.305	0.256	0.234	0.219	0.197	0.179
716																																																																																					0.489	0.541	0.569	0.447	0.449	0.314	0.310	0.260	0.237	0.222	0.199	0.181
717																																																																																					0.481	0.533	0.581	0.456	0.457	0.319	0.315	0.264	0.240	0.224	0.201	0.183
718																																																																																					0.474	0.525	0.593	0.464	0.465	0.324	0.320	0.267	0.243	0.227	0.203	0.184
719																																																																																					0.467	0.517	0.606	0.473	0.474	0.330	0.325	0.272	0.246	0.230	0.205	0.186
720																																																																																					0.460	0.509	0.619	0.482	0.483	0.335	0.330	0.276	0.249	0.233	0.208	0.188
721																																																																																					0.453	0.501	0.633	0.493	0.493	0.342	0.336	0.280	0.253	0.236	0.210	0.191
722																																																																																					0.445	0.493	0.648	0.503	0.503	0.348	0.342	0.284	0.257	0.239	0.213	0.193
723																																																																																					0.438	0.485	0.662	0.514	0.513	0.354	0.347	0.289	0.260	0.242	0.215	0.195
724																																																																																					0.432	0.478	0.676	0.525	0.524	0.361	0.353	0.294	0.264	0.246	0.218	0.197
725																																																																																					0.425	0.471	0.691	0.536	0.535	0.368	0.360	0.298	0.268	0.249	0.221	0.200
726																																																																																					0.419	0.463	0.706	0.547	0.545	0.374	0.366	0.303	0.272	0.253	0.224	0.202
727																																																																																					0.412	0.456	0.722	0.559	0.557	0.382	0.372	0.308	0.276	0.256	0.227	0.205
728																																																																																					0.406	0.449	0.740	0.572	0.570	0.390	0.380	0.315	0.281	0.261	0.231	0.208
729																																																																																					0.400	0.442	0.756	0.585	0.582	0.398	0.388	0.320	0.285	0.265	0.234	0.210
730																																																																																					0.394	0.436	0.772	0.597	0.594	0.405	0.394	0.326	0.290	0.269	0.237	0.213
731																																																																																					0.388	0.429	0.789	0.610	0.607	0.413	0.402	0.332	0.295	0.273	0.241	0.216
732																																																																																					0.383	0.423	0.805	0.623	0.619	0.422	0.410	0.338	0.300	0.278	0.244	0.219
733																																																																																					0.377	0.417	0.823	0.637	0.633	0.430	0.417	0.344	0.305	0.282	0.248	0.223
734																																																																																					0.372	0.411	0.839	0.650	0.646	0.438	0.425	0.350	0.310	0.286	0.252	0.226
735																																																																																					0.367	0.405	0.857	0.664	0.660	0.447	0.433	0.357	0.315	0.291	0.256	0.229
736																																																																																					0.361	0.399	0.876	0.679	0.674	0.457	0.442	0.363	0.321	0.296	0.260	0.232
737																																																																																					0.356	0.393	0.894	0.694	0.689	0.466	0.451	0.370	0.327	0.301	0.264	0.236
738																																																																																					0.351	0.387	0.913	0.709	0.704	0.475	0.459	0.377	0.332	0.306	0.268	0.239
739																																																																																					0.346	0.381	0.931	0.724	0.719	0.485	0.469	0.384	0.338	0.311	0.272	0.243
740																																																																																					0.341	0.376	0.950	0.739	0.734	0.495	0.478	0.392	0.344	0.317	0.276	0.246
741																																																																																					0.336	0.370	0.968	0.755	0.749	0.505	0.487	0.399	0.350	0.322	0.281	0.250
742																																																																																					0.331	0.365	0.988	0.771	0.765	0.515	0.497	0.407	0.356	0.327	0.285	0.254
743																																																																																					0.326	0.359	1.007	0.787	0.781	0.525	0.506	0.414	0.362	0.333	0.290	0.258
744																																																																																					0.321	0.354	1.026	0.804	0.798	0.536	0.517	0.423	0.369	0.339	0.295	0.262
745																																																																																					0.317	0.348	1.046	0.821	0.816	0.547	0.527	0.431	0.376	0.345	0.300	0.266
746																																																																																					0.312	0.343	1.066	0.837	0.832	0.558	0.538	0.439	0.383	0.351	0.304	0.270
747																																																																																					0.307	0.338	1.086	0.855	0.850	0.570	0.549	0.448	0.390	0.357	0.310	0.274
748																																																																																					0.303	0.333	1.106	0.873	0.868	0.582	0.560	0.457	0.398	0.364	0.315	0.279
749																																																																																					0.299	0.328	1.127	0.892	0.887	0.594	0.572	0.466	0.405	0.371	0.321	0.284
750																																																																																					0.294	0.323	1.147	0.909	0.904	0.606	0.583	0.475	0.413	0.378	0.326	0.288
751																																																																																					0.290	0.319	1.167	0.927	0.923	0.617	0.595	0.485	0.421	0.384	0.332	0.293
752																																																																																					0.287	0.315	1.186	0.945	0.941	0.629	0.606	0.494	0.428	0.391	0.337	0.298
753																																																																																					0.283	0.310	1.206	0.962	0.960	0.641	0.618	0.503	0.436	0.398	0.343	0.303
754																																																																																					0.279	0.306	1.226	0.981	0.978	0.654	0.630	0.513	0.444	0.405	0.349	0.308
755																																																																																					0.275	0.302	1.246	1.000	0.997	0.666	0.643	0.523	0.452	0.413	0.355	0.313
756																																																																																					0.272	0.298	1.266	1.018	1.017	0.679	0.656	0.534	0.462	0.420	0.362	0.318
757																																																																																					0.268	0.293	1.286	1.038	1.036	0.692	0.669	0.544	0.470	0.428	0.368	0.324
758																																																																																					0.264	0.289	1.310	1.060	1.060	0.708	0.685	0.557	0.480	0.437	0.376	0.330
759																																																																																					0.261	0.285	1.330	1.080	1.080	0.721	0.698	0.567	0.490	0.446	0.383	0.336
760																																																																																					0.257	0.281	1.352	1.101	1.102	0.736	0.713	0.579	0.499	0.455	0.390	0.342
761																																																																																					0.253	0.277	1.373	1.122	1.125	0.751	0.728	0.592	0.510	0.464	0.398	0.349
762																																																																																					0.250	0.272	1.396	1.145	1.147	0.767	0.744	0.605	0.521	0.474	0.406	0.356
763																																																																																					0.246	0.269	1.415	1.163	1.168	0.780	0.758	0.616	0.530	0.482	0.413	0.362
764																																																																																					0.244	0.266	1.433	1.181	1.186	0.793	0.771	0.626	0.539	0.490	0.420	0.368
765																																																																																					0.241	0.263	1.448	1.197	1.203	0.804	0.782	0.636	0.546	0.497	0.426	0.373
766																																																																																					0.238	0.260	1.466	1.215	1.223	0.817	0.796	0.647	0.556	0.506	0.433	0.379
767																																																																																					0.235	0.256	1.487	1.237	1.245	0.833	0.812	0.660	0.568	0.516	0.442	0.386
768																																																																																					0.232	0.253	1.508	1.259	1.269	0.849	0.829	0.674	0.580	0.527	0.451	0.394
769																																																																																					0.229	0.249	1.528	1.280	1.292	0.865	0.846	0.687	0.591	0.537	0.460	0.402
770																																																																																					0.226	0.246	1.548	1.302	1.315	0.881	0.863	0.701	0.603	0.548	0.469	0.409
771																																																																																					0.223	0.242	1.567	1.323	1.337	0.896	0.878	0.714	0.614	0.558	0.477	0.417
772																																																																																					0.221	0.239	1.585	1.343	1.359	0.911	0.894	0.727	0.625	0.569	0.486	0.424
773																																																																																					0.218	0.236	1.605	1.365	1.383	0.927	0.912	0.742	0.638	0.580	0.496	0.433
774																																																																																					0.215	0.233	1.624	1.386	1.406	0.943	0.929	0.756	0.650	0.591	0.505	0.441
775																																																																																					0.212	0.230	1.642	1.406	1.428	0.958	0.946	0.769	0.661	0.602	0.514	0.449
776																																																																																					0.210	0.227	1.660	1.427	1.452	0.974	0.963	0.784	0.674	0.613	0.524	0.457
777																																																																																					0.207	0.225	1.677	1.448	1.474	0.990	0.981	0.798	0.686	0.625	0.534	0.466
778																																																																																					0.205	0.221	1.697	1.470	1.498	1.006	0.999	0.813	0.700	0.637	0.544	0.475
779																																																																																					0.202	0.218	1.714	1.491	1.522	1.023	1.017	0.829	0.713	0.649	0.555	0.484
780																																																																																					0.200	0.216	1.732	1.512	1.545	1.039	1.036	0.844	0.726	0.661	0.566	0.493
781																																																																																					0.197	0.213	1.749	1.533	1.569	1.056	1.054	0.860	0.740	0.674	0.576	0.502
782																																																																																					0.195	0.210	1.765	1.553	1.591	1.072	1.072	0.874	0.753	0.686	0.587	0.512
783																																																																																					0.193	0.208	1.781	1.573	1.615	1.088	1.090	0.890	0.766	0.699	0.597	0.521
784																																																																																					0.190	0.205	1.797	1.595	1.638	1.105	1.110	0.906	0.781	0.712	0.609	0.531
785																																																																																					0.188	0.202	1.814	1.616	1.663	1.122	1.129	0.923	0.795	0.726	0.621	0.541
786																																																																																					0.186	0.200	1.831	1.637	1.688	1.139	1.150	0.941	0.810	0.740	0.634	0.552
787																																																																																					0.183	0.197	1.848	1.659	1.711	1.156	1.170	0.957	0.825	0.754	0.646	0.563
788																																																																																					0.181	0.195	1.861	1.679	1.734	1.174	1.189	0.973	0.840	0.768	0.658	0.574
789																																																																																					0.179	0.193	1.875	1.698	1.756	1.189	1.207	0.989	0.853	0.780	0.669	0.584
790																																																																																					0.177	0.191	1.889	1.716	1.779	1.204	1.226	1.004	0.867	0.794	0.680	0.594
791																																																																																					0.175	0.188	1.902	1.734	1.800	1.220	1.245	1.020	0.881	0.807	0.693	0.605
792																																																																																					0.173	0.185	1.917	1.757	1.825	1.239	1.267	1.040	0.899	0.824	0.707	0.618
793																																																																																					0.171	0.183	1.929	1.776	1.847	1.254	1.287	1.056	0.914	0.838	0.719	0.628
794																																																																																					0.169	0.181	1.942	1.794	1.869	1.271	1.307	1.073	0.929	0.853	0.732	0.640
795																																																																																					0.168	0.179	1.954	1.813	1.893	1.288	1.327	1.091	0.945	0.868	0.747	0.652
796																																																																																					0.166	0.177	1.965	1.830	1.913	1.303	1.345	1.106	0.959	0.881	0.758	0.663
797																																																																																					0.164	0.175	1.976	1.850	1.935	1.319	1.365	1.123	0.975	0.896	0.772	0.675
798																																																																																					0.162	0.173	1.988	1.867	1.956	1.335	1.385	1.140	0.990	0.911	0.785	0.686
799																																																																																					0.160	0.171	1.998	1.884	1.978	1.351	1.405	1.157	1.006	0.926	0.799	0.699
800																																																																																					0.159	0.169	2.008	1.902	1.998	1.366	1.425	1.175	1.022	0.942	0.812	0.712
801																																																																																					0.157	0.167	2.019	1.920	2.020	1.383	1.446	1.193	1.039	0.958	0.828	0.725
802																																																																																					0.155	0.165	2.027	1.935	2.040	1.398	1.465	1.210	1.053	0.973	0.841	0.737
803																																																																																					0.154	0.163	2.035	1.952	2.060	1.412	1.484	1.226	1.069	0.988	0.854	0.749
804																																																																																					0.152	0.162	2.045	1.968	2.080	1.429	1.505	1.245	1.086	1.004	0.869	0.763
805																																																																																					0.151	0.160	2.051	1.984	2.100	1.443	1.525	1.261	1.102	1.020	0.883	0.775
806																																																																																					0.149	0.158	2.058	1.998	2.117	1.457	1.542	1.278	1.117	1.034	0.897	0.788
807																																																																																					0.148	0.157	2.066	2.013	2.138	1.473	1.562	1.295	1.133	1.051	0.912	0.801
808																																																																																					0.146	0.155	2.072	2.028	2.155	1.486	1.581	1.311	1.148	1.065	0.925	0.813
809																																																																																					0.145	0.153	2.078	2.042	2.172	1.500	1.600	1.328	1.163	1.081	0.939	0.826
810																																																																																					0.144	0.152	2.084	2.055	2.191	1.514	1.618	1.344	1.179	1.096	0.954	0.839
811																																																																																					0.143	0.151	2.089	2.069	2.208	1.528	1.638	1.362	1.196	1.113	0.969	0.854
812																																																																																					0.141	0.149	2.093	2.081	2.226	1.542	1.656	1.379	1.212	1.129	0.984	0.867
813																																																																																					0.140	0.147	2.098	2.096	2.241	1.557	1.676	1.396	1.228	1.145	0.999	0.881
814																																																																																					0.139	0.146	2.101	2.107	2.259	1.569	1.694	1.412	1.244	1.161	1.014	0.895
815																																																																																					0.138	0.145	2.104	2.118	2.274	1.583	1.712	1.429	1.260	1.177	1.030	0.909
816																																																																																					0.136	0.143	2.108	2.132	2.291	1.597	1.734	1.448	1.278	1.196	1.047	0.925
817																																																																																					0.135	0.142	2.112	2.144	2.306	1.609	1.751	1.463	1.293	1.211	1.061	0.938
818																																																																																					0.134	0.140	2.112	2.154	2.322	1.623	1.771	1.480	1.310	1.228	1.077	0.953
819																																																																																					0.133	0.139	2.115	2.167	2.340	1.636	1.790	1.499	1.327	1.246	1.093	0.969
820																																																																																					0.132	0.138	2.117	2.181	2.358	1.652	1.813	1.520	1.349	1.267	1.114	0.988
821																																																																																					0.131	0.136	2.119	2.192	2.376	1.666	1.834	1.539	1.367	1.287	1.132	1.005
822																																																																																					0.130	0.135	2.119	2.199	2.388	1.675	1.849	1.552	1.379	1.300	1.145	1.017
823																																																																																					0.129	0.135	2.119	2.204	2.394	1.682	1.859	1.561	1.389	1.309	1.154	1.026
824																																																																																					0.128	0.134	2.119	2.208	2.400	1.688	1.868	1.570	1.397	1.317	1.162	1.034
825																																																																																					0.127	0.133	2.119	2.214	2.409	1.695	1.879	1.581	1.407	1.329	1.173	1.044
826																																																																																					0.127	0.132	2.118	2.223	2.424	1.708	1.900	1.600	1.427	1.349	1.192	1.062
827																																																																																					0.126	0.131	2.116	2.232	2.438	1.720	1.919	1.618	1.445	1.368	1.210	1.080
828																																																																																					0.125	0.131	2.115	2.239	2.447	1.730	1.934	1.632	1.458	1.382	1.225	1.093
829																																																																																					0.125	0.130	2.112	2.243	2.454	1.736	1.944	1.642	1.469	1.393	1.236	1.104
830																																																																																					0.124	0.130	2.111	2.247	2.463	1.745	1.958	1.654	1.481	1.406	1.249	1.116
831																																																																																					0.124	0.129	2.107	2.252	2.474	1.755	1.975	1.671	1.498	1.424	1.266	1.133
832																																																																																					0.123	0.128	2.102	2.261	2.484	1.768	1.996	1.692	1.520	1.447	1.289	1.154
833																																																																																					0.122	0.127	2.098	2.266	2.496	1.777	2.012	1.707	1.535	1.464	1.305	1.170
834																																																																																					0.122	0.126	2.094	2.269	2.503	1.783	2.024	1.718	1.546	1.476	1.317	1.182
835																																																																																					0.121	0.126	2.091	2.271	2.507	1.789	2.034	1.728	1.557	1.487	1.329	1.193
836																																																																																					0.120	0.125	2.087	2.273	2.510	1.794	2.044	1.737	1.566	1.498	1.339	1.204
837																																																																																					0.120	0.124	2.082	2.275	2.516	1.800	2.056	1.748	1.579	1.511	1.353	1.217
838																																																																																					0.119	0.123	2.075	2.277	2.523	1.807	2.069	1.763	1.593	1.527	1.369	1.233
839																																																																																					0.118	0.122	2.066	2.279	2.528	1.814	2.083	1.776	1.607	1.543	1.385	1.248
840																																																																																					0.118	0.121	2.061	2.281	2.536	1.819	2.094	1.788	1.620	1.557	1.399	1.262
841																																																																																					0.117	0.121	2.055	2.280	2.535	1.824	2.103	1.798	1.630	1.568	1.411	1.274
842																																																																																					0.116	0.120	2.048	2.279	2.539	1.827	2.113	1.806	1.639	1.579	1.422	1.285
843																																																																																					0.116	0.119	2.041	2.278	2.538	1.832	2.121	1.815	1.651	1.591	1.434	1.297
844																																																																																					0.115	0.118	2.034	2.276	2.539	1.836	2.131	1.827	1.663	1.605	1.449	1.312
845																																																																																					0.114	0.118	2.023	2.277	2.546	1.840	2.139	1.837	1.674	1.618	1.463	1.325
846																																																																																					0.114	0.117	2.015	2.273	2.544	1.843	2.151	1.845	1.684	1.629	1.475	1.337
847																																																																																					0.113	0.116	2.007	2.272	2.545	1.846	2.157	1.854	1.694	1.642	1.487	1.350
848																																																																																					0.113	0.116	1.997	2.266	2.550	1.848	2.165	1.861	1.702	1.652	1.498	1.361
849																																																																																					0.112	0.115	1.989	2.267	2.546	1.850	2.172	1.870	1.712	1.663	1.510	1.373
850																																																																																					0.111	0.115	1.980	2.261	2.545	1.851	2.180	1.877	1.722	1.673	1.520	1.384
851																																																																																					0.111	0.114	1.970	2.260	2.545	1.853	2.185	1.885	1.730	1.683	1.532	1.395
852																																																																																					0.110	0.113	1.961	2.253	2.543	1.854	2.192	1.892	1.738	1.694	1.544	1.408
853																																																																																					0.110	0.112	1.951	2.251	2.541	1.855	2.197	1.899	1.746	1.703	1.554	1.418
854																																																																																					0.109	0.112	1.941	2.247	2.539	1.856	2.202	1.905	1.754	1.713	1.564	1.429
855																																																																																					0.109	0.111	1.931	2.241	2.539	1.856	2.208	1.911	1.762	1.722	1.574	1.440
856																																																																																					0.108	0.111	1.919	2.232	2.531	1.855	2.213	1.917	1.769	1.733	1.585	1.451
857																																																																																					0.108	0.110	1.908	2.229	2.531	1.855	2.215	1.922	1.776	1.741	1.595	1.462
858																																																																																					0.107	0.110	1.897	2.221	2.526	1.854	2.218	1.927	1.782	1.750	1.604	1.472
859																																																																																					0.107	0.109	1.886	2.218	2.518	1.853	2.224	1.931	1.789	1.758	1.614	1.482
860																																																																																					0.106	0.108	1.875	2.209	2.515	1.853	2.224	1.935	1.794	1.764	1.622	1.491
861																																																																																					0.106	0.108	1.864	2.200	2.514	1.851	2.228	1.939	1.799	1.772	1.629	1.500
862																																																																																					0.106	0.108	1.853	2.194	2.506	1.849	2.228	1.943	1.805	1.778	1.639	1.508
863																																																																																					0.106	0.107	1.841	2.188	2.503	1.847	2.230	1.947	1.810	1.787	1.647	1.518
864																																																																																					0.105	0.107	1.830	2.182	2.494	1.844	2.231	1.948	1.815	1.794	1.655	1.527
865																																																																																					0.105	0.106	1.819	2.173	2.486	1.842	2.234	1.953	1.818	1.799	1.663	1.535
866																																																																																					0.105	0.106	1.805	2.166	2.481	1.839	2.233	1.955	1.823	1.806	1.671	1.544
867																																																																																					0.105	0.106	1.794	2.155	2.473	1.836	2.232	1.957	1.827	1.811	1.678	1.551
868																																																																																					0.105	0.106	1.781	2.144	2.469	1.833	2.233	1.958	1.831	1.817	1.685	1.560
869																																																																																					0.105	0.105	1.769	2.136	2.455	1.829	2.235	1.959	1.833	1.823	1.691	1.567
870																																																																																					0.105	0.105	1.758	2.128	2.453	1.825	2.232	1.961	1.836	1.826	1.697	1.575
871																																																																																					0.105	0.105	1.746	2.119	2.442	1.821	2.231	1.962	1.839	1.832	1.702	1.582
872																																																																																					0.105	0.105	1.734	2.110	2.438	1.817	2.230	1.963	1.842	1.837	1.710	1.589
873																																																																																					0.105	0.105	1.721	2.101	2.424	1.812	2.226	1.961	1.844	1.840	1.714	1.596
874																																																																																					0.105	0.105	1.709	2.089	2.417	1.808	2.225	1.962	1.845	1.845	1.720	1.602
875																																																																																					0.104	0.104	1.695	2.079	2.406	1.802	2.222	1.961	1.846	1.848	1.725	1.608
876																																																																																					0.104	0.104	1.682	2.067	2.396	1.797	2.220	1.961	1.848	1.852	1.730	1.614
877																																																																																					0.104	0.104	1.668	2.055	2.385	1.791	2.215	1.959	1.848	1.855	1.734	1.620
878																																																																																					0.104	0.103	1.649	2.042	2.373	1.782	2.209	1.956	1.849	1.857	1.739	1.626
879																																																																																					0.103	0.102	1.632	2.026	2.359	1.774	2.204	1.954	1.848	1.860	1.744	1.632
880																																																																																					0.102	0.102	1.617	2.012	2.346	1.767	2.199	1.951	1.848	1.861	1.747	1.636
881																																																																																					0.102	0.101	1.609	2.004	2.338	1.762	2.195	1.949	1.847	1.861	1.749	1.639
882																																																																																					0.101	0.101	1.602	1.998	2.332	1.759	2.193	1.948	1.846	1.861	1.751	1.641
883																																																																																					0.100	0.101	1.595	1.991	2.325	1.755	2.189	1.946	1.845	1.862	1.752	1.643
884																																																																																					0.100	0.101	1.586	1.983	2.317	1.750	2.186	1.944	1.844	1.862	1.754	1.646
885																																																																																					0.099	0.100	1.573	1.971	2.305	1.744	2.180	1.941	1.843	1.862	1.756	1.649
886																																																																																					0.099	0.100	1.554	1.953	2.287	1.732	2.171	1.935	1.839	1.862	1.758	1.652
887																																																																																					0.099	0.099	1.539	1.938	2.273	1.723	2.162	1.929	1.837	1.861	1.759	1.655
888																																																																																					0.098	0.099	1.524	1.925	2.260	1.715	2.155	1.924	1.833	1.860	1.760	1.657
889																																																																																					0.098	0.099	1.510	1.911	2.245	1.706	2.147	1.920	1.831	1.859	1.760	1.660
890																																																																																					0.098	0.098	1.496	1.897	2.231	1.698	2.138	1.913	1.827	1.858	1.761	1.661
891																																																																																					0.098	0.098	1.481	1.882	2.216	1.688	2.130	1.907	1.823	1.856	1.761	1.663
892																																																																																					0.098	0.098	1.463	1.865	2.198	1.677	2.118	1.901	1.818	1.854	1.761	1.665
893																																																																																					0.097	0.097	1.448	1.850	2.183	1.667	2.109	1.894	1.814	1.852	1.760	1.666
894																																																																																					0.097	0.097	1.436	1.838	2.172	1.659	2.102	1.888	1.810	1.850	1.760	1.666
895																																																																																					0.097	0.097	1.426	1.827	2.160	1.652	2.095	1.883	1.806	1.847	1.760	1.667
896																																																																																					0.096	0.097	1.418	1.819	2.151	1.647	2.089	1.880	1.804	1.846	1.759	1.668
897																																																																																					0.096	0.097	1.407	1.808	2.139	1.639	2.081	1.875	1.800	1.843	1.758	1.668
898																																																																																					0.096	0.097	1.396	1.796	2.127	1.631	2.072	1.869	1.795	1.841	1.757	1.667
899																																																																																					0.096	0.096	1.380	1.780	2.110	1.620	2.062	1.860	1.789	1.836	1.754	1.667
900																																																																																					0.096	0.096	1.365	1.764	2.093	1.609	2.050	1.852	1.782	1.832	1.752	1.666
901																																																																																					0.096	0.096	1.348	1.747	2.073	1.597	2.036	1.842	1.776	1.827	1.748	1.665
902																																																																																					0.096	0.096	1.331	1.728	2.057	1.585	2.022	1.832	1.768	1.822	1.745	1.663
903																																																																																					0.096	0.096	1.318	1.714	2.041	1.574	2.012	1.823	1.761	1.817	1.743	1.662
904																																																																																					0.096	0.096	1.309	1.704	2.030	1.567	2.004	1.818	1.757	1.813	1.740	1.661
905																																																																																					0.096	0.096	1.302	1.696	2.021	1.562	1.999	1.814	1.753	1.811	1.739	1.660
906																																																																																					0.095	0.096	1.294	1.687	2.011	1.555	1.992	1.808	1.749	1.807	1.737	1.659
907																																																																																					0.096	0.096	1.284	1.676	1.998	1.547	1.982	1.801	1.743	1.803	1.734	1.657
908																																																																																					0.096	0.096	1.267	1.657	1.979	1.534	1.967	1.790	1.735	1.795	1.728	1.654
909																																																																																					0.096	0.096	1.252	1.640	1.960	1.522	1.953	1.779	1.726	1.789	1.723	1.650
910																																																																																					0.096	0.096	1.238	1.625	1.944	1.510	1.940	1.769	1.718	1.782	1.718	1.647
911																																																																																					0.096	0.096	1.225	1.611	1.927	1.499	1.928	1.760	1.710	1.775	1.714	1.643
912																																																																																					0.097	0.097	1.209	1.594	1.909	1.485	1.913	1.748	1.700	1.768	1.708	1.639
913																																																																																					0.098	0.097	1.194	1.576	1.890	1.472	1.898	1.736	1.690	1.760	1.701	1.635
914																																																																																					0.098	0.097	1.179	1.559	1.871	1.459	1.883	1.724	1.680	1.752	1.694	1.630
915																																																																																					0.098	0.098	1.170	1.549	1.859	1.452	1.874	1.717	1.675	1.747	1.691	1.627
916																																																																																					0.098	0.098	1.164	1.541	1.850	1.446	1.867	1.711	1.669	1.742	1.688	1.625
917																																																																																					0.097	0.098	1.158	1.533	1.842	1.440	1.861	1.706	1.665	1.739	1.686	1.623
918																																																																																					0.098	0.098	1.151	1.526	1.833	1.434	1.854	1.701	1.661	1.734	1.682	1.621
919																																																																																					0.098	0.099	1.140	1.513	1.819	1.424	1.842	1.691	1.653	1.728	1.677	1.617
920																																																																																					0.099	0.099	1.128	1.498	1.802	1.412	1.828	1.680	1.643	1.719	1.670	1.612
921																																																																																					0.100	0.100	1.113	1.482	1.783	1.399	1.813	1.668	1.632	1.710	1.663	1.606
922																																																																																					0.101	0.101	1.102	1.468	1.769	1.389	1.799	1.657	1.624	1.702	1.655	1.601
923																																																																																					0.102	0.102	1.090	1.453	1.752	1.377	1.786	1.646	1.613	1.694	1.649	1.595
924																																																																																					0.102	0.103	1.080	1.441	1.738	1.367	1.774	1.636	1.605	1.686	1.642	1.590
925																																																																																					0.103	0.104	1.069	1.427	1.723	1.356	1.761	1.626	1.596	1.678	1.635	1.584
926																																																																																					0.105	0.105	1.058	1.415	1.708	1.346	1.748	1.615	1.587	1.670	1.629	1.579
927																																																																																					0.106	0.107	1.048	1.403	1.693	1.336	1.735	1.606	1.578	1.662	1.622	1.573
928																																																																																					0.107	0.108	1.038	1.389	1.679	1.325	1.722	1.595	1.569	1.653	1.614	1.567
929																																																																																					0.108	0.110	1.028	1.378	1.665	1.315	1.711	1.585	1.560	1.645	1.608	1.561
930																																																																																					0.110	0.111	1.020	1.366	1.653	1.306	1.698	1.575	1.551	1.638	1.601	1.556
931																																																																																					0.111	0.113	1.010	1.355	1.639	1.296	1.688	1.565	1.543	1.630	1.595	1.550
932																																																																																					0.113	0.114	1.000	1.344	1.626	1.286	1.675	1.556	1.534	1.621	1.588	1.544
933																																																																																					0.114	0.117	0.991	1.331	1.611	1.276	1.661	1.544	1.524	1.612	1.580	1.537
934																																																																																					0.116	0.119	0.982	1.318	1.598	1.266	1.649	1.534	1.514	1.605	1.572	1.531
935																																																																																					0.118	0.121	0.972	1.306	1.583	1.255	1.635	1.523	1.504	1.595	1.564	1.524
936																																																																																					0.120	0.123	0.964	1.296	1.571	1.246	1.624	1.514	1.496	1.586	1.557	1.518
937																																																																																					0.122	0.125	0.956	1.286	1.560	1.238	1.613	1.505	1.488	1.580	1.551	1.512
938																																																																																					0.123	0.127	0.950	1.278	1.550	1.231	1.604	1.497	1.481	1.573	1.545	1.508
939																																																																																					0.125	0.129	0.944	1.269	1.540	1.223	1.595	1.490	1.474	1.566	1.539	1.503
940																																																																																					0.127	0.131	0.937	1.260	1.529	1.215	1.585	1.481	1.466	1.558	1.532	1.497
941																																																																																					0.129	0.133	0.929	1.250	1.518	1.207	1.573	1.472	1.458	1.551	1.525	1.490
942																																																																																					0.132	0.137	0.921	1.239	1.504	1.197	1.561	1.461	1.448	1.541	1.517	1.483
943																																																																																					0.134	0.140	0.915	1.230	1.494	1.189	1.551	1.452	1.440	1.534	1.510	1.477
944																																																																																					0.137	0.143	0.908	1.221	1.483	1.181	1.540	1.443	1.431	1.525	1.503	1.471
945																																																																																					0.140	0.146	0.902	1.213	1.473	1.174	1.530	1.435	1.424	1.519	1.497	1.465
946																																																																																					0.143	0.150	0.896	1.204	1.463	1.166	1.520	1.427	1.416	1.511	1.490	1.459
947																																																																																					0.147	0.154	0.891	1.196	1.454	1.159	1.510	1.419	1.409	1.504	1.483	1.454
948																																																																																					0.151	0.159	0.885	1.189	1.444	1.152	1.501	1.411	1.401	1.496	1.476	1.447
949																																																																																					0.155	0.163	0.881	1.182	1.435	1.145	1.492	1.403	1.394	1.490	1.470	1.442
950																																																																																					0.160	0.168	0.877	1.175	1.428	1.140	1.483	1.396	1.388	1.484	1.465	1.437
951																																																																																					0.164	0.173	0.874	1.171	1.421	1.135	1.477	1.390	1.383	1.478	1.460	1.433
952																																																																																					0.167	0.178	0.871	1.166	1.416	1.131	1.471	1.386	1.378	1.474	1.456	1.429
953																																																																																					0.172	0.183	0.868	1.161	1.409	1.126	1.464	1.379	1.372	1.468	1.451	1.425
954																																																																																					0.177	0.189	0.865	1.155	1.402	1.120	1.456	1.372	1.366	1.462	1.445	1.420
955																																																																																					0.183	0.195	0.862	1.149	1.394	1.114	1.447	1.366	1.359	1.456	1.439	1.414
956																																																																																					0.187	0.200	0.858	1.143	1.387	1.109	1.440	1.359	1.352	1.449	1.433	1.409
957																																																																																					0.192	0.204	0.854	1.137	1.379	1.102	1.430	1.351	1.345	1.442	1.426	1.402
958																																																																																					0.195	0.209	0.849	1.129	1.370	1.095	1.420	1.342	1.337	1.433	1.419	1.395
959																																																																																					0.198	0.212	0.844	1.122	1.361	1.089	1.411	1.334	1.329	1.426	1.411	1.388
960																																																																																					0.201	0.215	0.839	1.114	1.351	1.082	1.400	1.325	1.321	1.418	1.403	1.381
961																																																																																					0.203	0.217	0.833	1.105	1.341	1.073	1.390	1.316	1.312	1.409	1.395	1.373
962																																																																																					0.204	0.219	0.827	1.096	1.330	1.065	1.378	1.306	1.302	1.399	1.386	1.365
963																																																																																					0.205	0.220	0.821	1.088	1.320	1.057	1.369	1.297	1.294	1.390	1.377	1.357
964																																																																																					0.207	0.222	0.815	1.079	1.309	1.049	1.357	1.286	1.284	1.380	1.368	1.348
965																																																																																					0.208	0.223	0.807	1.070	1.298	1.040	1.345	1.276	1.274	1.370	1.357	1.339
966																																																																																					0.208	0.224	0.800	1.060	1.285	1.030	1.333	1.264	1.262	1.359	1.347	1.329
967																																																																																					0.209	0.224	0.794	1.051	1.274	1.022	1.322	1.254	1.254	1.349	1.338	1.320
968																																																																																					0.209	0.225	0.787	1.042	1.264	1.014	1.311	1.246	1.244	1.340	1.329	1.312
969																																																																																					0.210	0.225	0.781	1.034	1.254	1.006	1.300	1.236	1.235	1.330	1.320	1.303
970																																																																																					0.210	0.225	0.775	1.024	1.242	0.997	1.289	1.225	1.224	1.320	1.310	1.293
971																																																																																					0.210	0.225	0.768	1.016	1.232	0.989	1.277	1.216	1.215	1.310	1.300	1.285
972																																																																																					0.210	0.226	0.762	1.006	1.220	0.980	1.266	1.205	1.205	1.300	1.291	1.275
973																																																																																					0.210	0.226	0.755	0.997	1.209	0.972	1.255	1.194	1.195	1.289	1.281	1.266
974																																																																																					0.211	0.226	0.747	0.987	1.197	0.962	1.241	1.182	1.184	1.277	1.269	1.254
975																																																																																					0.211	0.226	0.739	0.976	1.183	0.951	1.226	1.169	1.171	1.264	1.256	1.242
976																																																																																					0.211	0.226	0.730	0.964	1.168	0.939	1.211	1.155	1.157	1.250	1.242	1.229
977																																																																																					0.210	0.225	0.723	0.954	1.157	0.930	1.199	1.145	1.147	1.239	1.231	1.219
978																																																																																					0.209	0.225	0.718	0.947	1.148	0.923	1.191	1.137	1.139	1.231	1.224	1.211
979																																																																																					0.209	0.224	0.714	0.941	1.141	0.918	1.184	1.130	1.133	1.224	1.218	1.206
980																																																																																					0.208	0.224	0.711	0.936	1.135	0.914	1.178	1.125	1.128	1.219	1.214	1.201
981																																																																																					0.208	0.224	0.707	0.931	1.128	0.909	1.171	1.119	1.121	1.212	1.207	1.196
982																																																																																					0.207	0.223	0.702	0.924	1.120	0.902	1.163	1.111	1.113	1.204	1.200	1.188
983																																																																																					0.206	0.222	0.693	0.913	1.107	0.892	1.149	1.099	1.101	1.192	1.187	1.176
984																																																																																					0.205	0.221	0.683	0.899	1.090	0.878	1.132	1.083	1.086	1.175	1.171	1.161
985																																																																																					0.204	0.219	0.674	0.887	1.076	0.867	1.116	1.069	1.073	1.161	1.157	1.147
986																																																																																					0.203	0.218	0.666	0.876	1.063	0.857	1.103	1.056	1.060	1.149	1.145	1.135
987																																																																																					0.202	0.216	0.658	0.866	1.049	0.846	1.088	1.043	1.048	1.135	1.131	1.122
988																																																																																					0.200	0.214	0.649	0.853	1.034	0.834	1.072	1.028	1.034	1.121	1.116	1.108
989																																																																																					0.199	0.212	0.640	0.842	1.022	0.824	1.059	1.016	1.022	1.108	1.104	1.096
990																																																																																					0.197	0.210	0.633	0.833	1.010	0.815	1.047	1.005	1.011	1.097	1.093	1.086
991																																																																																					0.196	0.210	0.628	0.826	1.002	0.809	1.039	0.998	1.004	1.088	1.086	1.078
992																																																																																					0.195	0.209	0.625	0.821	0.995	0.804	1.034	0.992	0.998	1.082	1.081	1.073
993																																																																																					0.194	0.208	0.622	0.817	0.990	0.801	1.029	0.988	0.993	1.078	1.076	1.069
994																																																																																					0.193	0.207	0.618	0.812	0.983	0.795	1.022	0.982	0.987	1.071	1.070	1.063
995																																																																																					0.192	0.206	0.613	0.805	0.975	0.789	1.014	0.974	0.979	1.063	1.062	1.055
996																																																																																					0.190	0.204	0.606	0.795	0.964	0.780	1.002	0.963	0.968	1.051	1.051	1.044
997																																																																																					0.188	0.201	0.597	0.783	0.949	0.768	0.986	0.949	0.954	1.037	1.036	1.030
998																																																																																					0.186	0.199	0.588	0.772	0.936	0.757	0.972	0.936	0.942	1.023	1.023	1.017
999																																																																																					0.184	0.197	0.581	0.762	0.924	0.748	0.960	0.923	0.930	1.011	1.011	1.005

结果
	1	2	3	4	5	6	7	8	9	10	11	12
A	?????	?????	?????	?????	?????	?????	?????	?????	?????	?????	?????	?????	Mean Max OD [Spectrum]
B	?????	?????	?????	?????	?????	?????	?????	?????	?????	?????	?????	?????	Mean Max OD [Spectrum]
C	?????	?????	?????	?????	?????	?????	?????	?????	?????	?????	?????	?????	Mean Max OD [Spectrum]
D	?????	?????	?????	?????	?????	?????	?????	?????	?????	?????	?????	?????	Mean Max OD [Spectrum]
E	?????	?????	?????	?????	?????	?????	?????	?????	?????	?????	?????	?????	Mean Max OD [Spectrum]
F	?????	?????	?????	?????	?????	?????	?????	?????	?????	?????	?????	?????	Mean Max OD [Spectrum]
G	?????	?????	?????	?????	?????	?????	?????	?????	?????	?????	?????	?????	Mean Max OD [Spectrum]
H	1.160	1.327	2.119	2.281	2.550	1.856	2.235	1.963	1.849	1.862	1.761	1.668	Mean Max OD [Spectrum]

