

软件版本	3.11.19



实验文件路径:	
方案文件路径:	



板编号	板 1
日期	2023/5/31
时间	14:08:44
检测仪类型:	Epoch 2
检测仪序列号:	2205170B
检测类型	检测仪

程序详细信息

板类型	96 WELL PLATE
完成后弹出板	
检测	吸收光 光谱
	H1..H12
	开始: 400 nm,  停止: 999 nm,  步骤: 1 nm
	检测前校准
	检测速度: 正常,  延迟: 100 msec,  测量值/数据点: 8

Spectrum

波长	A1	A2	A3	A4	A5	A6	A7	A8	A9	A10	A11	A12	B1	B2	B3	B4	B5	B6	B7	B8	B9	B10	B11	B12	C1	C2	C3	C4	C5	C6	C7	C8	C9	C10	C11	C12	D1	D2	D3	D4	D5	D6	D7	D8	D9	D10	D11	D12	E1	E2	E3	E4	E5	E6	E7	E8	E9	E10	E11	E12	F1	F2	F3	F4	F5	F6	F7	F8	F9	F10	F11	F12	G1	G2	G3	G4	G5	G6	G7	G8	G9	G10	G11	G12	H1	H2	H3	H4	H5	H6	H7	H8	H9	H10	H11	H12
400																																																																																					0.591	0.603	0.583	0.579	0.574	0.573	0.601	0.625	0.580	0.631	0.565	0.576
401																																																																																					0.590	0.602	0.582	0.577	0.573	0.572	0.600	0.624	0.578	0.630	0.563	0.575
402																																																																																					0.588	0.600	0.580	0.576	0.571	0.570	0.598	0.622	0.577	0.628	0.562	0.573
403																																																																																					0.587	0.598	0.578	0.574	0.570	0.569	0.596	0.621	0.575	0.627	0.560	0.572
404																																																																																					0.585	0.597	0.577	0.573	0.568	0.567	0.595	0.619	0.574	0.625	0.559	0.570
405																																																																																					0.584	0.596	0.576	0.571	0.567	0.566	0.593	0.617	0.572	0.623	0.558	0.569
406																																																																																					0.582	0.594	0.574	0.570	0.566	0.565	0.592	0.616	0.571	0.622	0.556	0.568
407																																																																																					0.581	0.593	0.573	0.569	0.564	0.564	0.591	0.615	0.570	0.621	0.555	0.567
408																																																																																					0.580	0.591	0.572	0.568	0.563	0.562	0.589	0.613	0.569	0.619	0.554	0.565
409																																																																																					0.578	0.590	0.571	0.566	0.562	0.561	0.588	0.612	0.567	0.618	0.553	0.564
410																																																																																					0.577	0.589	0.569	0.565	0.560	0.559	0.587	0.610	0.566	0.616	0.551	0.563
411																																																																																					0.576	0.587	0.568	0.564	0.559	0.558	0.585	0.609	0.564	0.615	0.550	0.561
412																																																																																					0.574	0.586	0.567	0.562	0.558	0.557	0.584	0.607	0.563	0.613	0.549	0.560
413																																																																																					0.573	0.585	0.565	0.561	0.556	0.555	0.582	0.606	0.562	0.612	0.548	0.558
414																																																																																					0.572	0.583	0.564	0.560	0.555	0.554	0.581	0.605	0.561	0.611	0.546	0.557
415																																																																																					0.570	0.582	0.563	0.559	0.554	0.553	0.580	0.603	0.559	0.610	0.545	0.556
416																																																																																					0.569	0.581	0.562	0.557	0.553	0.552	0.579	0.602	0.558	0.608	0.544	0.555
417																																																																																					0.568	0.579	0.560	0.556	0.552	0.551	0.577	0.601	0.557	0.607	0.543	0.554
418																																																																																					0.567	0.578	0.559	0.555	0.550	0.549	0.576	0.600	0.556	0.606	0.542	0.552
419																																																																																					0.565	0.577	0.558	0.554	0.549	0.548	0.575	0.598	0.554	0.604	0.540	0.551
420																																																																																					0.564	0.576	0.557	0.553	0.548	0.547	0.574	0.597	0.553	0.603	0.539	0.550
421																																																																																					0.563	0.575	0.556	0.552	0.547	0.546	0.573	0.596	0.552	0.602	0.538	0.549
422																																																																																					0.562	0.574	0.555	0.551	0.546	0.545	0.572	0.595	0.551	0.601	0.538	0.548
423																																																																																					0.561	0.573	0.554	0.550	0.545	0.544	0.570	0.594	0.550	0.600	0.537	0.547
424																																																																																					0.560	0.571	0.553	0.549	0.544	0.543	0.569	0.593	0.549	0.599	0.536	0.546
425																																																																																					0.559	0.571	0.552	0.548	0.543	0.542	0.568	0.591	0.548	0.598	0.535	0.545
426																																																																																					0.558	0.569	0.551	0.547	0.542	0.541	0.567	0.590	0.547	0.597	0.534	0.544
427																																																																																					0.557	0.568	0.550	0.546	0.541	0.540	0.566	0.589	0.546	0.596	0.533	0.543
428																																																																																					0.556	0.567	0.549	0.545	0.540	0.539	0.565	0.588	0.545	0.595	0.532	0.542
429																																																																																					0.555	0.567	0.548	0.544	0.539	0.538	0.564	0.587	0.544	0.594	0.531	0.541
430																																																																																					0.554	0.565	0.547	0.543	0.538	0.537	0.563	0.586	0.543	0.593	0.530	0.540
431																																																																																					0.553	0.564	0.546	0.542	0.537	0.536	0.562	0.585	0.542	0.592	0.529	0.539
432																																																																																					0.552	0.563	0.545	0.542	0.536	0.535	0.561	0.584	0.541	0.591	0.528	0.538
433																																																																																					0.551	0.562	0.544	0.541	0.535	0.534	0.560	0.583	0.540	0.590	0.527	0.537
434																																																																																					0.550	0.561	0.544	0.540	0.535	0.534	0.559	0.582	0.539	0.589	0.526	0.536
435																																																																																					0.549	0.560	0.543	0.539	0.534	0.533	0.559	0.581	0.539	0.588	0.526	0.535
436																																																																																					0.548	0.559	0.542	0.538	0.533	0.532	0.558	0.580	0.538	0.587	0.525	0.534
437																																																																																					0.547	0.559	0.541	0.537	0.532	0.531	0.557	0.579	0.537	0.586	0.524	0.534
438																																																																																					0.546	0.558	0.540	0.536	0.531	0.530	0.556	0.578	0.536	0.585	0.523	0.533
439																																																																																					0.545	0.557	0.539	0.535	0.530	0.529	0.555	0.577	0.535	0.584	0.522	0.532
440																																																																																					0.544	0.556	0.538	0.534	0.530	0.528	0.554	0.577	0.534	0.583	0.521	0.531
441																																																																																					0.544	0.555	0.538	0.534	0.529	0.528	0.553	0.576	0.534	0.583	0.521	0.531
442																																																																																					0.543	0.554	0.537	0.533	0.528	0.527	0.553	0.575	0.533	0.582	0.520	0.530
443																																																																																					0.542	0.554	0.536	0.532	0.528	0.526	0.552	0.574	0.532	0.581	0.519	0.529
444																																																																																					0.542	0.553	0.536	0.531	0.527	0.526	0.551	0.574	0.532	0.581	0.519	0.528
445																																																																																					0.541	0.552	0.535	0.531	0.526	0.525	0.551	0.573	0.531	0.580	0.518	0.528
446																																																																																					0.540	0.552	0.534	0.530	0.526	0.524	0.550	0.572	0.530	0.579	0.517	0.527
447																																																																																					0.539	0.551	0.533	0.530	0.525	0.524	0.549	0.571	0.530	0.578	0.517	0.526
448																																																																																					0.539	0.550	0.533	0.529	0.524	0.523	0.549	0.571	0.529	0.578	0.516	0.526
449																																																																																					0.538	0.550	0.532	0.528	0.524	0.523	0.548	0.570	0.529	0.577	0.516	0.525
450																																																																																					0.538	0.549	0.532	0.528	0.523	0.522	0.548	0.570	0.528	0.577	0.515	0.525
451																																																																																					0.537	0.548	0.531	0.527	0.523	0.521	0.547	0.569	0.528	0.576	0.515	0.524
452																																																																																					0.537	0.548	0.531	0.527	0.522	0.521	0.547	0.569	0.527	0.576	0.514	0.524
453																																																																																					0.536	0.548	0.530	0.526	0.522	0.521	0.546	0.568	0.527	0.575	0.514	0.523
454																																																																																					0.536	0.547	0.530	0.526	0.522	0.520	0.546	0.568	0.526	0.575	0.513	0.523
455																																																																																					0.535	0.547	0.529	0.525	0.521	0.520	0.545	0.567	0.526	0.574	0.513	0.522
456																																																																																					0.535	0.546	0.529	0.525	0.521	0.519	0.545	0.567	0.525	0.574	0.513	0.522
457																																																																																					0.534	0.546	0.529	0.525	0.520	0.519	0.545	0.567	0.525	0.574	0.512	0.522
458																																																																																					0.534	0.546	0.528	0.525	0.520	0.519	0.544	0.567	0.525	0.573	0.512	0.521
459																																																																																					0.534	0.545	0.528	0.524	0.520	0.519	0.544	0.567	0.524	0.573	0.512	0.521
460																																																																																					0.534	0.545	0.528	0.524	0.520	0.519	0.544	0.566	0.524	0.573	0.512	0.521
461																																																																																					0.534	0.545	0.528	0.524	0.520	0.519	0.544	0.566	0.525	0.573	0.512	0.521
462																																																																																					0.534	0.545	0.528	0.524	0.520	0.519	0.544	0.566	0.525	0.573	0.512	0.521
463																																																																																					0.534	0.545	0.528	0.524	0.520	0.519	0.544	0.567	0.525	0.573	0.512	0.521
464																																																																																					0.534	0.546	0.528	0.524	0.520	0.519	0.544	0.567	0.525	0.573	0.512	0.521
465																																																																																					0.534	0.546	0.528	0.524	0.520	0.519	0.544	0.567	0.525	0.573	0.512	0.521
466																																																																																					0.534	0.546	0.529	0.525	0.521	0.519	0.545	0.567	0.525	0.573	0.512	0.521
467																																																																																					0.535	0.546	0.529	0.525	0.521	0.520	0.545	0.568	0.526	0.574	0.513	0.522
468																																																																																					0.535	0.547	0.529	0.526	0.522	0.520	0.546	0.568	0.526	0.574	0.513	0.522
469																																																																																					0.535	0.547	0.530	0.526	0.522	0.520	0.546	0.569	0.527	0.575	0.514	0.523
470																																																																																					0.536	0.548	0.531	0.527	0.523	0.521	0.547	0.569	0.527	0.576	0.514	0.523
471																																																																																					0.537	0.549	0.531	0.527	0.523	0.522	0.547	0.570	0.528	0.576	0.515	0.524
472																																																																																					0.538	0.550	0.532	0.528	0.524	0.523	0.548	0.571	0.529	0.577	0.516	0.525
473																																																																																					0.539	0.551	0.533	0.529	0.525	0.524	0.550	0.572	0.530	0.578	0.517	0.526
474																																																																																					0.540	0.552	0.534	0.530	0.526	0.525	0.551	0.573	0.531	0.579	0.518	0.527
475																																																																																					0.541	0.553	0.536	0.532	0.528	0.526	0.552	0.575	0.532	0.581	0.519	0.528
476																																																																																					0.542	0.555	0.537	0.533	0.529	0.528	0.554	0.577	0.533	0.582	0.520	0.529
477																																																																																					0.544	0.556	0.539	0.535	0.531	0.529	0.555	0.578	0.535	0.584	0.522	0.531
478																																																																																					0.545	0.558	0.540	0.536	0.532	0.531	0.557	0.580	0.537	0.585	0.523	0.532
479																																																																																					0.547	0.560	0.542	0.538	0.534	0.533	0.559	0.582	0.539	0.587	0.525	0.534
480																																																																																					0.549	0.563	0.545	0.540	0.536	0.535	0.561	0.585	0.541	0.590	0.527	0.536
481																																																																																					0.552	0.565	0.547	0.543	0.539	0.538	0.564	0.588	0.544	0.593	0.530	0.539
482																																																																																					0.555	0.568	0.550	0.546	0.542	0.541	0.568	0.591	0.546	0.596	0.533	0.542
483																																																																																					0.558	0.571	0.553	0.549	0.544	0.543	0.570	0.594	0.549	0.598	0.535	0.544
484																																																																																					0.560	0.574	0.555	0.551	0.547	0.546	0.573	0.597	0.551	0.601	0.538	0.546
485																																																																																					0.562	0.576	0.558	0.554	0.549	0.548	0.575	0.599	0.554	0.603	0.540	0.549
486																																																																																					0.565	0.579	0.561	0.556	0.552	0.551	0.578	0.602	0.557	0.606	0.542	0.551
487																																																																																					0.569	0.583	0.565	0.560	0.556	0.555	0.582	0.607	0.561	0.611	0.546	0.555
488																																																																																					0.573	0.587	0.569	0.564	0.560	0.558	0.586	0.611	0.564	0.614	0.550	0.559
489																																																																																					0.577	0.591	0.573	0.568	0.564	0.562	0.590	0.615	0.568	0.618	0.553	0.563
490																																																																																					0.581	0.596	0.577	0.572	0.568	0.567	0.594	0.620	0.572	0.623	0.557	0.567
491																																																																																					0.586	0.601	0.582	0.578	0.573	0.572	0.600	0.626	0.578	0.628	0.563	0.572
492																																																																																					0.590	0.606	0.587	0.582	0.577	0.576	0.604	0.630	0.582	0.632	0.566	0.576
493																																																																																					0.595	0.611	0.591	0.586	0.582	0.580	0.608	0.635	0.586	0.637	0.571	0.580
494																																																																																					0.600	0.616	0.596	0.591	0.586	0.585	0.613	0.640	0.591	0.642	0.575	0.585
495																																																																																					0.606	0.622	0.602	0.597	0.593	0.591	0.620	0.647	0.597	0.649	0.581	0.591
496																																																																																					0.611	0.628	0.608	0.603	0.598	0.596	0.626	0.654	0.602	0.654	0.586	0.596
497																																																																																					0.617	0.634	0.614	0.609	0.604	0.602	0.632	0.660	0.608	0.660	0.592	0.601
498																																																																																					0.623	0.640	0.619	0.614	0.609	0.608	0.637	0.666	0.614	0.666	0.597	0.607
499																																																																																					0.627	0.645	0.624	0.619	0.614	0.612	0.642	0.671	0.618	0.671	0.601	0.611
500																																																																																					0.633	0.650	0.630	0.624	0.619	0.618	0.648	0.677	0.624	0.677	0.606	0.616
501																																																																																					0.638	0.656	0.636	0.630	0.625	0.623	0.654	0.683	0.629	0.683	0.612	0.622
502																																																																																					0.644	0.662	0.641	0.636	0.630	0.629	0.659	0.690	0.635	0.689	0.617	0.627
503																																																																																					0.649	0.668	0.647	0.641	0.635	0.634	0.665	0.696	0.640	0.694	0.622	0.632
504																																																																																					0.654	0.674	0.652	0.647	0.641	0.639	0.671	0.702	0.646	0.700	0.627	0.637
505																																																																																					0.659	0.678	0.657	0.651	0.645	0.643	0.675	0.707	0.650	0.704	0.631	0.641
506																																																																																					0.663	0.683	0.662	0.656	0.650	0.648	0.680	0.712	0.655	0.710	0.636	0.646
507																																																																																					0.668	0.688	0.666	0.660	0.654	0.653	0.685	0.717	0.659	0.714	0.640	0.650
508																																																																																					0.672	0.692	0.670	0.665	0.658	0.657	0.689	0.722	0.663	0.719	0.644	0.654
509																																																																																					0.675	0.696	0.674	0.669	0.662	0.661	0.693	0.726	0.667	0.723	0.647	0.658
510																																																																																					0.679	0.700	0.678	0.672	0.666	0.664	0.697	0.730	0.671	0.726	0.651	0.661
511																																																																																					0.682	0.703	0.681	0.675	0.669	0.667	0.700	0.733	0.674	0.730	0.653	0.664
512																																																																																					0.684	0.706	0.684	0.678	0.671	0.670	0.703	0.736	0.676	0.732	0.656	0.666
513																																																																																					0.686	0.708	0.686	0.680	0.673	0.672	0.705	0.739	0.678	0.734	0.658	0.668
514																																																																																					0.687	0.710	0.688	0.682	0.675	0.673	0.707	0.741	0.680	0.736	0.659	0.670
515																																																																																					0.688	0.711	0.689	0.683	0.676	0.674	0.708	0.742	0.681	0.737	0.660	0.671
516																																																																																					0.689	0.712	0.690	0.684	0.677	0.675	0.709	0.743	0.682	0.738	0.661	0.672
517																																																																																					0.689	0.712	0.690	0.684	0.677	0.676	0.709	0.743	0.682	0.739	0.661	0.672
518																																																																																					0.689	0.712	0.690	0.685	0.678	0.676	0.709	0.744	0.682	0.739	0.662	0.672
519																																																																																					0.688	0.712	0.690	0.684	0.677	0.676	0.709	0.743	0.682	0.738	0.661	0.672
520																																																																																					0.687	0.711	0.689	0.683	0.677	0.675	0.709	0.743	0.682	0.738	0.661	0.671
521																																																																																					0.686	0.710	0.688	0.683	0.676	0.674	0.707	0.742	0.681	0.737	0.660	0.670
522																																																																																					0.684	0.708	0.686	0.681	0.674	0.672	0.706	0.740	0.679	0.735	0.658	0.668
523																																																																																					0.681	0.706	0.684	0.679	0.672	0.670	0.703	0.738	0.677	0.733	0.656	0.666
524																																																																																					0.678	0.703	0.681	0.676	0.669	0.667	0.701	0.735	0.674	0.730	0.654	0.664
525																																																																																					0.675	0.700	0.679	0.674	0.667	0.665	0.698	0.732	0.672	0.727	0.651	0.661
526																																																																																					0.672	0.697	0.675	0.671	0.664	0.662	0.695	0.729	0.669	0.724	0.648	0.658
527																																																																																					0.668	0.693	0.672	0.667	0.660	0.658	0.692	0.725	0.665	0.720	0.644	0.654
528																																																																																					0.664	0.690	0.668	0.664	0.657	0.655	0.688	0.721	0.662	0.717	0.641	0.651
529																																																																																					0.661	0.686	0.665	0.660	0.654	0.652	0.685	0.718	0.659	0.713	0.638	0.648
530																																																																																					0.658	0.683	0.662	0.657	0.650	0.649	0.681	0.714	0.656	0.710	0.635	0.645
531																																																																																					0.653	0.678	0.657	0.653	0.646	0.644	0.677	0.709	0.652	0.705	0.631	0.640
532																																																																																					0.647	0.672	0.651	0.647	0.641	0.639	0.671	0.703	0.646	0.700	0.626	0.635
533																																																																																					0.642	0.666	0.646	0.642	0.635	0.633	0.666	0.697	0.641	0.694	0.621	0.630
534																																																																																					0.637	0.661	0.641	0.637	0.631	0.629	0.660	0.692	0.636	0.688	0.616	0.625
535																																																																																					0.631	0.655	0.635	0.631	0.625	0.623	0.655	0.685	0.631	0.682	0.611	0.619
536																																																																																					0.625	0.650	0.630	0.626	0.620	0.618	0.649	0.680	0.625	0.677	0.606	0.614
537																																																																																					0.619	0.643	0.624	0.620	0.614	0.612	0.643	0.673	0.619	0.670	0.600	0.608
538																																																																																					0.613	0.636	0.617	0.613	0.607	0.605	0.636	0.666	0.613	0.664	0.594	0.602
539																																																																																					0.605	0.629	0.610	0.606	0.600	0.598	0.629	0.658	0.606	0.656	0.587	0.595
540																																																																																					0.598	0.621	0.602	0.599	0.593	0.591	0.621	0.650	0.599	0.648	0.580	0.588
541																																																																																					0.591	0.614	0.596	0.592	0.587	0.585	0.614	0.643	0.592	0.642	0.574	0.582
542																																																																																					0.585	0.608	0.589	0.586	0.580	0.578	0.608	0.636	0.586	0.635	0.568	0.576
543																																																																																					0.579	0.602	0.583	0.580	0.574	0.572	0.602	0.629	0.580	0.629	0.563	0.570
544																																																																																					0.572	0.594	0.576	0.573	0.567	0.565	0.594	0.621	0.573	0.621	0.555	0.563
545																																																																																					0.564	0.585	0.568	0.565	0.559	0.557	0.586	0.613	0.565	0.613	0.548	0.555
546																																																																																					0.556	0.577	0.559	0.556	0.551	0.549	0.578	0.603	0.557	0.604	0.540	0.547
547																																																																																					0.548	0.569	0.552	0.549	0.544	0.542	0.570	0.595	0.550	0.596	0.533	0.540
548																																																																																					0.541	0.562	0.545	0.542	0.537	0.535	0.563	0.588	0.543	0.589	0.527	0.533
549																																																																																					0.534	0.554	0.538	0.535	0.530	0.528	0.555	0.580	0.536	0.582	0.520	0.526
550																																																																																					0.526	0.546	0.529	0.527	0.522	0.520	0.547	0.571	0.528	0.573	0.512	0.518
551																																																																																					0.518	0.537	0.521	0.519	0.514	0.512	0.538	0.562	0.520	0.564	0.504	0.510
552																																																																																					0.510	0.529	0.513	0.510	0.505	0.504	0.530	0.553	0.512	0.555	0.497	0.503
553																																																																																					0.503	0.521	0.505	0.503	0.498	0.496	0.522	0.544	0.504	0.547	0.489	0.495
554																																																																																					0.495	0.512	0.497	0.495	0.490	0.488	0.514	0.535	0.496	0.539	0.482	0.487
555																																																																																					0.488	0.504	0.489	0.487	0.483	0.481	0.506	0.527	0.489	0.531	0.475	0.480
556																																																																																					0.480	0.495	0.481	0.479	0.474	0.472	0.497	0.518	0.481	0.522	0.467	0.472
557																																																																																					0.472	0.487	0.473	0.471	0.467	0.465	0.489	0.509	0.473	0.514	0.459	0.465
558																																																																																					0.464	0.478	0.464	0.463	0.458	0.457	0.480	0.500	0.465	0.505	0.451	0.456
559																																																																																					0.456	0.470	0.456	0.454	0.450	0.448	0.472	0.491	0.457	0.496	0.443	0.448
560																																																																																					0.449	0.463	0.449	0.447	0.443	0.441	0.465	0.483	0.450	0.489	0.437	0.442
561																																																																																					0.442	0.455	0.441	0.440	0.436	0.434	0.457	0.474	0.442	0.481	0.429	0.434
562																																																																																					0.435	0.447	0.434	0.433	0.429	0.427	0.449	0.467	0.435	0.473	0.423	0.427
563																																																																																					0.428	0.441	0.427	0.426	0.422	0.420	0.443	0.459	0.428	0.466	0.417	0.421
564																																																																																					0.422	0.433	0.420	0.419	0.416	0.413	0.435	0.452	0.422	0.459	0.410	0.414
565																																																																																					0.414	0.425	0.413	0.411	0.408	0.406	0.427	0.443	0.414	0.451	0.403	0.407
566																																																																																					0.408	0.418	0.406	0.405	0.401	0.400	0.421	0.436	0.407	0.444	0.396	0.401
567																																																																																					0.401	0.411	0.399	0.398	0.395	0.393	0.414	0.428	0.401	0.437	0.390	0.394
568																																																																																					0.395	0.405	0.393	0.392	0.389	0.386	0.407	0.421	0.394	0.430	0.384	0.388
569																																																																																					0.389	0.398	0.386	0.385	0.382	0.380	0.400	0.414	0.388	0.423	0.378	0.382
570																																																																																					0.383	0.392	0.380	0.379	0.376	0.374	0.394	0.407	0.382	0.417	0.372	0.376
571																																																																																					0.377	0.385	0.373	0.373	0.369	0.367	0.387	0.400	0.375	0.409	0.365	0.369
572																																																																																					0.371	0.379	0.367	0.366	0.364	0.361	0.381	0.393	0.369	0.403	0.360	0.363
573																																																																																					0.366	0.373	0.362	0.361	0.359	0.356	0.376	0.388	0.364	0.398	0.355	0.359
574																																																																																					0.361	0.367	0.356	0.356	0.353	0.351	0.370	0.381	0.359	0.392	0.350	0.353
575																																																																																					0.355	0.362	0.351	0.350	0.348	0.345	0.364	0.375	0.353	0.386	0.345	0.348
576																																																																																					0.351	0.357	0.346	0.345	0.343	0.341	0.359	0.370	0.349	0.381	0.340	0.343
577																																																																																					0.346	0.352	0.341	0.340	0.338	0.336	0.353	0.364	0.344	0.376	0.335	0.338
578																																																																																					0.341	0.346	0.336	0.335	0.333	0.331	0.348	0.358	0.338	0.370	0.330	0.333
579																																																																																					0.336	0.341	0.331	0.330	0.328	0.325	0.343	0.353	0.333	0.365	0.325	0.328
580																																																																																					0.331	0.336	0.326	0.325	0.323	0.321	0.338	0.347	0.328	0.359	0.320	0.324
581																																																																																					0.327	0.331	0.321	0.321	0.318	0.316	0.333	0.342	0.324	0.355	0.316	0.319
582																																																																																					0.323	0.327	0.317	0.316	0.314	0.311	0.328	0.337	0.319	0.350	0.312	0.315
583																																																																																					0.319	0.322	0.312	0.312	0.309	0.307	0.323	0.332	0.315	0.345	0.307	0.310
584																																																																																					0.315	0.317	0.308	0.307	0.305	0.303	0.319	0.327	0.310	0.340	0.303	0.306
585																																																																																					0.311	0.313	0.303	0.303	0.301	0.299	0.315	0.323	0.306	0.336	0.299	0.302
586																																																																																					0.307	0.309	0.299	0.299	0.297	0.295	0.310	0.318	0.302	0.332	0.295	0.298
587																																																																																					0.303	0.305	0.296	0.295	0.293	0.291	0.306	0.314	0.298	0.327	0.291	0.294
588																																																																																					0.300	0.302	0.292	0.292	0.290	0.288	0.303	0.310	0.295	0.324	0.288	0.291
589																																																																																					0.297	0.298	0.289	0.289	0.287	0.284	0.300	0.307	0.292	0.321	0.285	0.288
590																																																																																					0.294	0.295	0.286	0.286	0.283	0.281	0.296	0.303	0.289	0.317	0.282	0.285
591																																																																																					0.291	0.292	0.283	0.282	0.281	0.278	0.293	0.299	0.286	0.314	0.279	0.282
592																																																																																					0.288	0.288	0.280	0.279	0.277	0.275	0.289	0.296	0.282	0.310	0.276	0.279
593																																																																																					0.285	0.285	0.277	0.276	0.275	0.272	0.286	0.293	0.280	0.307	0.274	0.276
594																																																																																					0.283	0.282	0.274	0.274	0.272	0.269	0.283	0.289	0.277	0.304	0.271	0.273
595																																																																																					0.280	0.280	0.271	0.271	0.269	0.266	0.280	0.286	0.274	0.301	0.268	0.270
596																																																																																					0.278	0.277	0.268	0.268	0.266	0.263	0.278	0.283	0.271	0.298	0.265	0.267
597																																																																																					0.276	0.275	0.266	0.266	0.264	0.261	0.275	0.281	0.269	0.295	0.263	0.265
598																																																																																					0.274	0.272	0.264	0.263	0.262	0.259	0.273	0.278	0.267	0.293	0.261	0.263
599																																																																																					0.272	0.270	0.261	0.261	0.260	0.257	0.270	0.275	0.264	0.290	0.259	0.261
600																																																																																					0.270	0.268	0.259	0.259	0.257	0.254	0.268	0.273	0.262	0.288	0.256	0.258
601																																																																																					0.267	0.265	0.257	0.256	0.255	0.252	0.265	0.270	0.260	0.285	0.254	0.256
602																																																																																					0.265	0.263	0.254	0.254	0.253	0.250	0.263	0.268	0.257	0.283	0.252	0.254
603																																																																																					0.264	0.261	0.252	0.252	0.251	0.248	0.261	0.265	0.255	0.281	0.250	0.252
604																																																																																					0.262	0.259	0.250	0.251	0.249	0.246	0.259	0.263	0.253	0.279	0.248	0.250
605																																																																																					0.261	0.258	0.249	0.249	0.247	0.244	0.258	0.262	0.252	0.277	0.246	0.249
606																																																																																					0.260	0.256	0.247	0.247	0.246	0.243	0.256	0.260	0.250	0.276	0.245	0.247
607																																																																																					0.258	0.255	0.246	0.246	0.244	0.241	0.254	0.258	0.249	0.274	0.243	0.246
608																																																																																					0.257	0.253	0.244	0.244	0.243	0.240	0.252	0.256	0.247	0.272	0.242	0.244
609																																																																																					0.256	0.251	0.243	0.243	0.241	0.238	0.251	0.254	0.245	0.270	0.240	0.243
610																																																																																					0.254	0.250	0.241	0.241	0.240	0.236	0.249	0.253	0.244	0.269	0.239	0.241
611																																																																																					0.253	0.249	0.240	0.240	0.239	0.235	0.248	0.251	0.243	0.267	0.237	0.240
612																																																																																					0.253	0.247	0.239	0.239	0.238	0.234	0.246	0.250	0.241	0.266	0.236	0.239
613																																																																																					0.252	0.246	0.238	0.237	0.236	0.233	0.245	0.249	0.240	0.265	0.235	0.238
614																																																																																					0.251	0.245	0.237	0.236	0.235	0.232	0.244	0.247	0.239	0.263	0.234	0.236
615																																																																																					0.250	0.244	0.235	0.235	0.234	0.231	0.243	0.246	0.238	0.262	0.233	0.235
616																																																																																					0.249	0.243	0.235	0.234	0.233	0.230	0.242	0.245	0.237	0.261	0.232	0.234
617																																																																																					0.249	0.242	0.234	0.234	0.232	0.229	0.240	0.244	0.236	0.260	0.231	0.233
618																																																																																					0.248	0.242	0.233	0.233	0.231	0.228	0.240	0.243	0.235	0.259	0.230	0.232
619																																																																																					0.248	0.241	0.232	0.232	0.231	0.227	0.239	0.242	0.234	0.258	0.229	0.232
620																																																																																					0.247	0.240	0.231	0.231	0.230	0.226	0.238	0.241	0.233	0.257	0.228	0.231
621																																																																																					0.247	0.239	0.231	0.230	0.229	0.226	0.237	0.240	0.233	0.256	0.228	0.230
622																																																																																					0.246	0.239	0.230	0.230	0.228	0.225	0.236	0.240	0.232	0.256	0.227	0.229
623																																																																																					0.246	0.239	0.230	0.229	0.228	0.224	0.236	0.239	0.231	0.255	0.227	0.229
624																																																																																					0.246	0.238	0.229	0.229	0.227	0.224	0.235	0.238	0.231	0.255	0.226	0.228
625																																																																																					0.246	0.238	0.229	0.229	0.227	0.224	0.235	0.238	0.230	0.254	0.226	0.228
626																																																																																					0.246	0.238	0.229	0.228	0.227	0.223	0.234	0.237	0.230	0.254	0.225	0.228
627																																																																																					0.246	0.238	0.228	0.228	0.227	0.223	0.234	0.237	0.230	0.253	0.225	0.227
628																																																																																					0.247	0.238	0.228	0.228	0.226	0.223	0.234	0.237	0.229	0.253	0.225	0.227
629																																																																																					0.247	0.238	0.228	0.228	0.226	0.223	0.234	0.237	0.229	0.253	0.224	0.227
630																																																																																					0.247	0.238	0.228	0.228	0.226	0.222	0.233	0.236	0.229	0.253	0.224	0.227
631																																																																																					0.248	0.238	0.228	0.228	0.226	0.222	0.233	0.236	0.229	0.252	0.224	0.227
632																																																																																					0.248	0.238	0.228	0.228	0.226	0.222	0.233	0.236	0.229	0.252	0.224	0.227
633																																																																																					0.249	0.238	0.229	0.228	0.226	0.222	0.233	0.236	0.229	0.252	0.224	0.227
634																																																																																					0.249	0.239	0.229	0.228	0.226	0.222	0.233	0.236	0.229	0.252	0.224	0.227
635																																																																																					0.250	0.239	0.229	0.228	0.227	0.223	0.233	0.237	0.229	0.252	0.224	0.227
636																																																																																					0.251	0.239	0.230	0.229	0.227	0.223	0.234	0.237	0.229	0.253	0.224	0.227
637																																																																																					0.252	0.240	0.230	0.229	0.227	0.223	0.234	0.237	0.230	0.253	0.224	0.227
638																																																																																					0.253	0.241	0.231	0.230	0.227	0.224	0.234	0.237	0.230	0.253	0.225	0.228
639																																																																																					0.254	0.241	0.231	0.230	0.228	0.224	0.235	0.238	0.230	0.254	0.225	0.228
640																																																																																					0.255	0.242	0.232	0.231	0.229	0.225	0.235	0.239	0.231	0.254	0.226	0.229
641																																																																																					0.256	0.243	0.233	0.232	0.229	0.225	0.235	0.239	0.231	0.255	0.226	0.229
642																																																																																					0.258	0.244	0.233	0.232	0.230	0.226	0.236	0.240	0.232	0.255	0.227	0.230
643																																																																																					0.259	0.245	0.234	0.233	0.231	0.226	0.237	0.241	0.232	0.256	0.227	0.230
644																																																																																					0.261	0.246	0.235	0.234	0.232	0.227	0.238	0.241	0.233	0.257	0.228	0.231
645																																																																																					0.262	0.248	0.237	0.235	0.233	0.228	0.239	0.242	0.234	0.258	0.229	0.232
646																																																																																					0.264	0.249	0.238	0.236	0.234	0.229	0.240	0.243	0.235	0.258	0.229	0.233
647																																																																																					0.266	0.250	0.239	0.237	0.234	0.230	0.240	0.244	0.236	0.259	0.230	0.234
648																																																																																					0.267	0.252	0.240	0.239	0.236	0.231	0.241	0.245	0.237	0.260	0.231	0.234
649																																																																																					0.270	0.253	0.242	0.240	0.237	0.232	0.243	0.247	0.238	0.261	0.232	0.236
650																																																																																					0.272	0.255	0.243	0.241	0.238	0.234	0.244	0.248	0.239	0.263	0.233	0.237
651																																																																																					0.274	0.257	0.245	0.243	0.239	0.235	0.245	0.250	0.240	0.264	0.234	0.238
652																																																																																					0.276	0.258	0.246	0.244	0.241	0.236	0.246	0.251	0.241	0.265	0.235	0.239
653																																																																																					0.279	0.260	0.248	0.246	0.242	0.237	0.248	0.253	0.243	0.267	0.236	0.240
654																																																																																					0.281	0.262	0.250	0.248	0.244	0.239	0.249	0.254	0.244	0.268	0.238	0.242
655																																																																																					0.283	0.264	0.252	0.249	0.246	0.241	0.251	0.256	0.246	0.270	0.239	0.243
656																																																																																					0.286	0.267	0.254	0.251	0.247	0.242	0.253	0.258	0.247	0.271	0.241	0.245
657																																																																																					0.290	0.269	0.256	0.254	0.249	0.244	0.255	0.260	0.249	0.273	0.242	0.247
658																																																																																					0.293	0.272	0.259	0.256	0.251	0.246	0.256	0.262	0.251	0.275	0.244	0.249
659																																																																																					0.296	0.274	0.261	0.258	0.253	0.248	0.258	0.264	0.253	0.277	0.246	0.251
660																																																																																					0.299	0.277	0.264	0.260	0.255	0.250	0.260	0.266	0.255	0.279	0.248	0.253
661																																																																																					0.303	0.280	0.266	0.263	0.258	0.253	0.263	0.269	0.257	0.281	0.250	0.255
662																																																																																					0.306	0.283	0.269	0.265	0.260	0.255	0.265	0.271	0.259	0.283	0.252	0.257
663																																																																																					0.310	0.286	0.272	0.268	0.263	0.257	0.268	0.274	0.262	0.286	0.254	0.259
664																																																																																					0.314	0.289	0.275	0.271	0.265	0.260	0.270	0.276	0.264	0.288	0.256	0.262
665																																																																																					0.318	0.292	0.278	0.274	0.268	0.262	0.273	0.279	0.266	0.291	0.258	0.264
666																																																																																					0.322	0.296	0.281	0.277	0.271	0.265	0.275	0.282	0.269	0.293	0.261	0.266
667																																																																																					0.327	0.299	0.285	0.280	0.274	0.268	0.278	0.285	0.272	0.296	0.263	0.269
668																																																																																					0.331	0.303	0.289	0.284	0.277	0.271	0.281	0.288	0.275	0.299	0.266	0.272
669																																																																																					0.336	0.307	0.292	0.287	0.280	0.274	0.284	0.292	0.278	0.302	0.269	0.275
670																																																																																					0.341	0.311	0.296	0.291	0.283	0.277	0.287	0.295	0.281	0.305	0.272	0.278
671																																																																																					0.346	0.316	0.300	0.294	0.287	0.281	0.290	0.299	0.284	0.308	0.274	0.281
672																																																																																					0.350	0.320	0.304	0.298	0.290	0.284	0.294	0.302	0.287	0.312	0.277	0.284
673																																																																																					0.356	0.324	0.308	0.302	0.294	0.287	0.297	0.306	0.290	0.315	0.280	0.287
674																																																																																					0.362	0.330	0.313	0.307	0.298	0.291	0.301	0.310	0.294	0.319	0.284	0.291
675																																																																																					0.368	0.334	0.318	0.311	0.302	0.295	0.305	0.315	0.298	0.323	0.287	0.295
676																																																																																					0.374	0.340	0.323	0.316	0.306	0.299	0.309	0.319	0.301	0.327	0.291	0.298
677																																																																																					0.380	0.345	0.328	0.321	0.310	0.303	0.314	0.324	0.305	0.331	0.295	0.302
678																																																																																					0.386	0.350	0.333	0.325	0.314	0.308	0.318	0.328	0.310	0.335	0.298	0.306
679																																																																																					0.393	0.356	0.338	0.331	0.319	0.312	0.322	0.333	0.314	0.339	0.302	0.310
680																																																																																					0.400	0.362	0.344	0.336	0.324	0.317	0.327	0.338	0.319	0.344	0.307	0.315
681																																																																																					0.407	0.368	0.350	0.341	0.329	0.322	0.332	0.343	0.323	0.349	0.311	0.319
682																																																																																					0.414	0.374	0.356	0.347	0.334	0.327	0.336	0.349	0.328	0.354	0.315	0.324
683																																																																																					0.421	0.380	0.362	0.352	0.339	0.331	0.341	0.354	0.332	0.359	0.320	0.329
684																																																																																					0.428	0.387	0.368	0.358	0.344	0.337	0.347	0.359	0.337	0.364	0.324	0.333
685																																																																																					0.436	0.394	0.374	0.365	0.349	0.342	0.352	0.366	0.343	0.369	0.329	0.339
686																																																																																					0.445	0.401	0.382	0.371	0.355	0.348	0.358	0.372	0.349	0.375	0.334	0.344
687																																																																																					0.454	0.409	0.389	0.378	0.362	0.354	0.364	0.379	0.354	0.381	0.340	0.350
688																																																																																					0.463	0.417	0.396	0.385	0.368	0.361	0.371	0.386	0.361	0.388	0.345	0.356
689																																																																																					0.472	0.425	0.404	0.392	0.375	0.367	0.377	0.393	0.366	0.394	0.351	0.361
690																																																																																					0.480	0.432	0.411	0.399	0.381	0.373	0.383	0.399	0.372	0.400	0.356	0.367
691																																																																																					0.489	0.440	0.419	0.406	0.387	0.379	0.389	0.406	0.378	0.406	0.362	0.373
692																																																																																					0.498	0.449	0.427	0.414	0.394	0.386	0.396	0.413	0.385	0.413	0.368	0.379
693																																																																																					0.508	0.458	0.435	0.422	0.401	0.393	0.403	0.421	0.392	0.420	0.374	0.386
694																																																																																					0.518	0.466	0.444	0.430	0.408	0.400	0.410	0.429	0.399	0.427	0.381	0.393
695																																																																																					0.528	0.475	0.452	0.438	0.415	0.407	0.417	0.436	0.405	0.434	0.387	0.399
696																																																																																					0.538	0.485	0.462	0.447	0.423	0.415	0.425	0.445	0.413	0.442	0.394	0.406
697																																																																																					0.550	0.495	0.472	0.456	0.432	0.423	0.434	0.454	0.421	0.450	0.401	0.414
698																																																																																					0.560	0.504	0.480	0.465	0.439	0.430	0.441	0.462	0.428	0.458	0.408	0.421
699																																																																																					0.570	0.513	0.489	0.473	0.447	0.439	0.449	0.471	0.435	0.465	0.415	0.428
700																																																																																					0.580	0.523	0.498	0.482	0.455	0.446	0.456	0.479	0.442	0.473	0.422	0.435
701																																																																																					0.591	0.533	0.508	0.491	0.463	0.454	0.465	0.488	0.451	0.481	0.429	0.443
702																																																																																					0.602	0.543	0.518	0.500	0.471	0.462	0.473	0.497	0.459	0.489	0.437	0.451
703																																																																																					0.615	0.555	0.530	0.511	0.481	0.472	0.483	0.508	0.468	0.499	0.445	0.460
704																																																																																					0.627	0.566	0.540	0.521	0.490	0.481	0.491	0.517	0.477	0.508	0.454	0.468
705																																																																																					0.638	0.577	0.551	0.531	0.499	0.490	0.501	0.527	0.486	0.518	0.462	0.477
706																																																																																					0.650	0.588	0.561	0.541	0.509	0.499	0.510	0.537	0.494	0.527	0.470	0.485
707																																																																																					0.663	0.600	0.573	0.551	0.518	0.508	0.520	0.548	0.504	0.536	0.479	0.494
708																																																																																					0.676	0.612	0.584	0.562	0.528	0.518	0.529	0.558	0.513	0.546	0.487	0.504
709																																																																																					0.689	0.623	0.596	0.573	0.538	0.528	0.539	0.569	0.523	0.556	0.496	0.513
710																																																																																					0.701	0.635	0.607	0.584	0.548	0.538	0.549	0.580	0.533	0.566	0.505	0.522
711																																																																																					0.714	0.647	0.618	0.595	0.558	0.548	0.559	0.591	0.543	0.577	0.514	0.531
712																																																																																					0.726	0.659	0.630	0.606	0.568	0.558	0.569	0.601	0.552	0.587	0.523	0.540
713																																																																																					0.740	0.672	0.643	0.618	0.579	0.569	0.580	0.613	0.562	0.598	0.532	0.551
714																																																																																					0.753	0.685	0.655	0.630	0.590	0.580	0.591	0.625	0.573	0.609	0.543	0.561
715																																																																																					0.766	0.698	0.668	0.642	0.600	0.590	0.602	0.637	0.584	0.620	0.553	0.571
716																																																																																					0.780	0.711	0.680	0.654	0.611	0.601	0.613	0.648	0.594	0.631	0.563	0.581
717																																																																																					0.793	0.724	0.693	0.666	0.622	0.612	0.624	0.660	0.604	0.642	0.573	0.591
718																																																																																					0.806	0.736	0.705	0.678	0.632	0.622	0.635	0.672	0.615	0.653	0.582	0.602
719																																																																																					0.820	0.750	0.718	0.691	0.644	0.634	0.646	0.685	0.626	0.664	0.593	0.613
720																																																																																					0.833	0.762	0.731	0.703	0.655	0.644	0.657	0.697	0.636	0.675	0.603	0.623
721																																																																																					0.848	0.777	0.745	0.716	0.667	0.657	0.670	0.710	0.648	0.688	0.614	0.634
722																																																																																					0.862	0.791	0.758	0.730	0.679	0.669	0.682	0.723	0.660	0.700	0.625	0.646
723																																																																																					0.876	0.805	0.772	0.743	0.690	0.680	0.694	0.736	0.671	0.712	0.636	0.657
724																																																																																					0.890	0.819	0.786	0.755	0.702	0.692	0.706	0.749	0.683	0.724	0.647	0.667
725																																																																																					0.904	0.833	0.800	0.769	0.714	0.704	0.718	0.762	0.695	0.737	0.658	0.679
726																																																																																					0.918	0.846	0.813	0.782	0.726	0.716	0.730	0.775	0.706	0.748	0.669	0.690
727																																																																																					0.932	0.860	0.827	0.795	0.738	0.728	0.743	0.789	0.718	0.761	0.680	0.702
728																																																																																					0.946	0.875	0.840	0.809	0.750	0.740	0.755	0.802	0.730	0.774	0.692	0.714
729																																																																																					0.960	0.889	0.855	0.822	0.763	0.752	0.768	0.816	0.742	0.786	0.703	0.726
730																																																																																					0.974	0.903	0.868	0.835	0.774	0.765	0.780	0.829	0.754	0.799	0.715	0.737
731																																																																																					0.989	0.918	0.883	0.849	0.787	0.777	0.794	0.843	0.767	0.812	0.727	0.750
732																																																																																					1.002	0.932	0.896	0.862	0.799	0.789	0.806	0.857	0.779	0.825	0.738	0.761
733																																																																																					1.016	0.946	0.910	0.875	0.811	0.802	0.819	0.870	0.791	0.838	0.750	0.773
734																																																																																					1.028	0.959	0.923	0.888	0.823	0.813	0.830	0.883	0.802	0.850	0.761	0.784
735																																																																																					1.042	0.973	0.936	0.901	0.835	0.826	0.843	0.897	0.814	0.863	0.772	0.796
736																																																																																					1.056	0.987	0.951	0.915	0.848	0.838	0.856	0.911	0.827	0.876	0.784	0.808
737																																																																																					1.069	1.001	0.964	0.928	0.860	0.850	0.869	0.924	0.839	0.889	0.796	0.820
738																																																																																					1.084	1.016	0.979	0.943	0.874	0.864	0.883	0.939	0.853	0.903	0.808	0.833
739																																																																																					1.097	1.030	0.993	0.956	0.886	0.877	0.895	0.953	0.865	0.916	0.820	0.845
740																																																																																					1.109	1.043	1.005	0.968	0.897	0.888	0.907	0.966	0.876	0.929	0.831	0.857
741																																																																																					1.121	1.056	1.018	0.981	0.909	0.900	0.920	0.979	0.888	0.941	0.842	0.868
742																																																																																					1.134	1.069	1.031	0.993	0.920	0.912	0.932	0.992	0.900	0.953	0.854	0.879
743																																																																																					1.146	1.082	1.044	1.006	0.932	0.923	0.944	1.006	0.912	0.966	0.865	0.891
744																																																																																					1.158	1.095	1.056	1.018	0.944	0.935	0.956	1.019	0.923	0.978	0.876	0.902
745																																																																																					1.170	1.108	1.069	1.030	0.956	0.947	0.968	1.032	0.935	0.991	0.887	0.913
746																																																																																					1.181	1.120	1.081	1.042	0.966	0.958	0.980	1.044	0.946	1.003	0.898	0.924
747																																																																																					1.193	1.133	1.094	1.055	0.978	0.970	0.992	1.057	0.958	1.015	0.909	0.935
748																																																																																					1.204	1.145	1.106	1.067	0.989	0.981	1.003	1.070	0.969	1.027	0.920	0.946
749																																																																																					1.215	1.158	1.118	1.079	1.000	0.992	1.016	1.083	0.981	1.040	0.931	0.957
750																																																																																					1.225	1.169	1.130	1.090	1.011	1.004	1.027	1.095	0.992	1.052	0.942	0.968
751																																																																																					1.236	1.181	1.141	1.101	1.021	1.014	1.038	1.107	1.002	1.063	0.952	0.978
752																																																																																					1.245	1.192	1.152	1.112	1.032	1.025	1.048	1.119	1.013	1.074	0.962	0.988
753																																																																																					1.255	1.203	1.163	1.123	1.042	1.035	1.059	1.130	1.023	1.085	0.972	0.998
754																																																																																					1.264	1.214	1.173	1.133	1.052	1.045	1.070	1.142	1.034	1.096	0.981	1.008
755																																																																																					1.274	1.225	1.184	1.144	1.062	1.056	1.081	1.154	1.044	1.107	0.992	1.018
756																																																																																					1.284	1.235	1.195	1.155	1.072	1.066	1.091	1.165	1.055	1.119	1.002	1.028
757																																																																																					1.293	1.246	1.205	1.165	1.082	1.076	1.102	1.177	1.065	1.130	1.012	1.038
758																																																																																					1.302	1.256	1.216	1.175	1.091	1.087	1.113	1.188	1.075	1.140	1.022	1.048
759																																																																																					1.311	1.267	1.226	1.186	1.101	1.097	1.123	1.200	1.086	1.152	1.032	1.058
760																																																																																					1.319	1.277	1.236	1.196	1.111	1.106	1.134	1.211	1.096	1.162	1.041	1.068
761																																																																																					1.328	1.288	1.247	1.207	1.121	1.117	1.145	1.223	1.107	1.174	1.052	1.078
762																																																																																					1.337	1.298	1.257	1.217	1.131	1.128	1.156	1.235	1.117	1.185	1.062	1.088
763																																																																																					1.346	1.309	1.268	1.227	1.142	1.138	1.167	1.246	1.128	1.197	1.072	1.099
764																																																																																					1.352	1.316	1.275	1.235	1.149	1.146	1.175	1.255	1.136	1.206	1.080	1.106
765																																																																																					1.358	1.323	1.282	1.242	1.156	1.153	1.183	1.263	1.143	1.213	1.087	1.113
766																																																																																					1.364	1.331	1.290	1.250	1.163	1.161	1.191	1.272	1.151	1.222	1.094	1.120
767																																																																																					1.371	1.340	1.298	1.259	1.172	1.170	1.200	1.282	1.161	1.232	1.104	1.129
768																																																																																					1.378	1.348	1.307	1.268	1.181	1.179	1.210	1.292	1.170	1.242	1.112	1.138
769																																																																																					1.384	1.356	1.315	1.276	1.189	1.187	1.219	1.302	1.178	1.252	1.121	1.147
770																																																																																					1.390	1.364	1.323	1.283	1.198	1.196	1.228	1.312	1.187	1.261	1.130	1.155
771																																																																																					1.396	1.371	1.330	1.291	1.205	1.204	1.236	1.321	1.195	1.270	1.137	1.163
772																																																																																					1.401	1.378	1.337	1.298	1.212	1.211	1.244	1.329	1.203	1.279	1.145	1.170
773																																																																																					1.407	1.386	1.344	1.305	1.220	1.219	1.253	1.338	1.211	1.288	1.154	1.179
774																																																																																					1.411	1.392	1.351	1.312	1.227	1.226	1.261	1.346	1.219	1.296	1.161	1.186
775																																																																																					1.416	1.399	1.357	1.319	1.234	1.234	1.269	1.355	1.227	1.305	1.169	1.194
776																																																																																					1.420	1.405	1.363	1.325	1.241	1.242	1.276	1.363	1.234	1.313	1.176	1.201
777																																																																																					1.424	1.411	1.369	1.331	1.247	1.248	1.283	1.371	1.241	1.320	1.183	1.208
778																																																																																					1.428	1.416	1.375	1.337	1.254	1.255	1.291	1.379	1.248	1.329	1.190	1.215
779																																																																																					1.432	1.422	1.380	1.343	1.260	1.262	1.298	1.386	1.255	1.336	1.198	1.221
780																																																																																					1.435	1.427	1.386	1.348	1.266	1.268	1.305	1.393	1.262	1.344	1.205	1.228
781																																																																																					1.439	1.432	1.391	1.354	1.273	1.275	1.313	1.401	1.269	1.352	1.212	1.236
782																																																																																					1.441	1.437	1.395	1.359	1.279	1.280	1.319	1.408	1.274	1.359	1.218	1.242
783																																																																																					1.444	1.441	1.400	1.363	1.284	1.286	1.325	1.414	1.281	1.365	1.224	1.248
784																																																																																					1.446	1.445	1.403	1.368	1.289	1.292	1.332	1.420	1.287	1.373	1.230	1.254
785																																																																																					1.449	1.449	1.407	1.372	1.294	1.297	1.338	1.427	1.292	1.379	1.236	1.260
786																																																																																					1.450	1.452	1.411	1.376	1.299	1.303	1.344	1.433	1.298	1.385	1.242	1.266
787																																																																																					1.451	1.455	1.414	1.380	1.304	1.308	1.349	1.438	1.303	1.392	1.248	1.272
788																																																																																					1.453	1.458	1.417	1.383	1.308	1.313	1.354	1.443	1.308	1.397	1.254	1.277
789																																																																																					1.454	1.461	1.419	1.386	1.312	1.317	1.359	1.449	1.313	1.403	1.258	1.282
790																																																																																					1.454	1.463	1.422	1.389	1.316	1.320	1.363	1.452	1.317	1.407	1.263	1.286
791																																																																																					1.455	1.465	1.423	1.391	1.319	1.325	1.368	1.457	1.321	1.412	1.268	1.290
792																																																																																					1.455	1.467	1.426	1.394	1.323	1.328	1.372	1.462	1.325	1.417	1.272	1.295
793																																																																																					1.455	1.469	1.427	1.396	1.326	1.332	1.376	1.466	1.329	1.422	1.276	1.299
794																																																																																					1.454	1.469	1.428	1.397	1.329	1.335	1.380	1.469	1.332	1.426	1.281	1.303
795																																																																																					1.454	1.470	1.429	1.399	1.332	1.338	1.384	1.473	1.336	1.431	1.285	1.308
796																																																																																					1.452	1.471	1.430	1.400	1.334	1.341	1.387	1.476	1.339	1.434	1.288	1.311
797																																																																																					1.452	1.472	1.430	1.401	1.336	1.344	1.390	1.479	1.341	1.438	1.292	1.314
798																																																																																					1.451	1.472	1.430	1.402	1.339	1.346	1.393	1.481	1.344	1.441	1.295	1.317
799																																																																																					1.449	1.471	1.430	1.403	1.340	1.348	1.395	1.484	1.346	1.444	1.298	1.320
800																																																																																					1.446	1.472	1.430	1.403	1.342	1.349	1.398	1.486	1.348	1.447	1.300	1.322
801																																																																																					1.444	1.470	1.429	1.402	1.343	1.351	1.400	1.487	1.350	1.449	1.303	1.325
802																																																																																					1.442	1.470	1.428	1.403	1.344	1.352	1.401	1.489	1.351	1.452	1.305	1.327
803																																																																																					1.440	1.468	1.427	1.401	1.345	1.353	1.403	1.490	1.353	1.454	1.307	1.329
804																																																																																					1.437	1.467	1.425	1.401	1.345	1.354	1.404	1.491	1.354	1.455	1.309	1.331
805																																																																																					1.434	1.466	1.424	1.400	1.346	1.355	1.405	1.492	1.355	1.457	1.311	1.332
806																																																																																					1.431	1.464	1.422	1.399	1.346	1.355	1.407	1.492	1.356	1.458	1.312	1.333
807																																																																																					1.428	1.462	1.420	1.398	1.346	1.355	1.407	1.493	1.356	1.459	1.313	1.335
808																																																																																					1.425	1.460	1.418	1.396	1.345	1.355	1.407	1.493	1.356	1.460	1.314	1.335
809																																																																																					1.421	1.457	1.416	1.394	1.345	1.355	1.408	1.493	1.356	1.460	1.315	1.336
810																																																																																					1.418	1.455	1.413	1.392	1.344	1.355	1.408	1.492	1.356	1.461	1.315	1.336
811																																																																																					1.414	1.452	1.411	1.390	1.344	1.354	1.407	1.492	1.356	1.462	1.316	1.337
812																																																																																					1.409	1.449	1.407	1.388	1.342	1.353	1.407	1.491	1.355	1.461	1.316	1.337
813																																																																																					1.405	1.446	1.405	1.385	1.341	1.352	1.407	1.490	1.355	1.461	1.317	1.337
814																																																																																					1.401	1.442	1.401	1.383	1.340	1.351	1.406	1.489	1.354	1.461	1.316	1.337
815																																																																																					1.396	1.439	1.397	1.379	1.339	1.349	1.405	1.488	1.353	1.460	1.316	1.336
816																																																																																					1.391	1.435	1.393	1.376	1.337	1.348	1.403	1.486	1.351	1.459	1.315	1.335
817																																																																																					1.386	1.431	1.390	1.373	1.335	1.346	1.402	1.485	1.350	1.458	1.315	1.335
818																																																																																					1.380	1.426	1.385	1.369	1.332	1.344	1.400	1.483	1.348	1.457	1.313	1.333
819																																																																																					1.375	1.421	1.380	1.365	1.330	1.342	1.398	1.480	1.346	1.456	1.312	1.332
820																																																																																					1.367	1.415	1.374	1.359	1.327	1.339	1.396	1.477	1.343	1.453	1.311	1.332
821																																																																																					1.361	1.410	1.368	1.354	1.324	1.336	1.393	1.474	1.341	1.451	1.309	1.330
822																																																																																					1.356	1.406	1.365	1.351	1.321	1.334	1.391	1.472	1.340	1.450	1.308	1.328
823																																																																																					1.354	1.404	1.363	1.350	1.320	1.333	1.391	1.470	1.338	1.449	1.307	1.326
824																																																																																					1.351	1.402	1.360	1.348	1.319	1.331	1.390	1.469	1.337	1.447	1.306	1.325
825																																																																																					1.347	1.398	1.357	1.345	1.317	1.329	1.389	1.467	1.335	1.446	1.305	1.323
826																																																																																					1.341	1.392	1.351	1.341	1.313	1.326	1.385	1.463	1.332	1.443	1.303	1.321
827																																																																																					1.333	1.386	1.344	1.334	1.309	1.323	1.382	1.459	1.329	1.440	1.300	1.318
828																																																																																					1.328	1.381	1.339	1.330	1.306	1.320	1.379	1.456	1.326	1.438	1.298	1.316
829																																																																																					1.323	1.377	1.336	1.327	1.304	1.317	1.377	1.454	1.324	1.436	1.297	1.314
830																																																																																					1.319	1.373	1.331	1.323	1.301	1.315	1.375	1.451	1.322	1.433	1.295	1.312
831																																																																																					1.312	1.367	1.325	1.318	1.297	1.311	1.371	1.447	1.319	1.430	1.292	1.309
832																																																																																					1.302	1.357	1.316	1.309	1.292	1.306	1.366	1.441	1.313	1.426	1.288	1.306
833																																																																																					1.294	1.351	1.309	1.302	1.287	1.301	1.361	1.436	1.309	1.422	1.285	1.302
834																																																																																					1.289	1.346	1.304	1.298	1.284	1.298	1.359	1.433	1.306	1.419	1.282	1.299
835																																																																																					1.284	1.341	1.300	1.295	1.281	1.295	1.356	1.430	1.304	1.416	1.280	1.297
836																																																																																					1.280	1.337	1.296	1.291	1.278	1.292	1.353	1.426	1.301	1.414	1.278	1.294
837																																																																																					1.273	1.330	1.289	1.285	1.273	1.288	1.349	1.422	1.297	1.410	1.275	1.290
838																																																																																					1.264	1.322	1.281	1.277	1.268	1.283	1.344	1.416	1.291	1.405	1.270	1.286
839																																																																																					1.256	1.315	1.273	1.270	1.262	1.277	1.339	1.410	1.287	1.400	1.266	1.282
840																																																																																					1.248	1.308	1.266	1.264	1.258	1.272	1.334	1.405	1.282	1.395	1.262	1.278
841																																																																																					1.243	1.301	1.261	1.259	1.254	1.268	1.330	1.401	1.278	1.392	1.259	1.274
842																																																																																					1.237	1.296	1.255	1.253	1.249	1.264	1.326	1.396	1.274	1.388	1.255	1.271
843																																																																																					1.229	1.289	1.248	1.248	1.244	1.260	1.322	1.391	1.270	1.383	1.251	1.266
844																																																																																					1.222	1.282	1.241	1.241	1.239	1.255	1.317	1.385	1.265	1.378	1.248	1.262
845																																																																																					1.214	1.274	1.233	1.234	1.233	1.249	1.311	1.379	1.259	1.373	1.243	1.258
846																																																																																					1.206	1.266	1.226	1.227	1.228	1.244	1.306	1.373	1.254	1.368	1.238	1.253
847																																																																																					1.198	1.259	1.218	1.219	1.223	1.238	1.300	1.367	1.250	1.363	1.234	1.248
848																																																																																					1.192	1.252	1.211	1.214	1.218	1.234	1.296	1.362	1.245	1.358	1.230	1.244
849																																																																																					1.185	1.246	1.205	1.207	1.213	1.229	1.291	1.356	1.240	1.353	1.225	1.240
850																																																																																					1.178	1.239	1.198	1.200	1.207	1.223	1.286	1.350	1.234	1.348	1.221	1.235
851																																																																																					1.170	1.231	1.190	1.193	1.202	1.217	1.281	1.344	1.230	1.343	1.216	1.230
852																																																																																					1.163	1.224	1.183	1.187	1.197	1.212	1.275	1.339	1.224	1.338	1.212	1.226
853																																																																																					1.156	1.216	1.176	1.180	1.191	1.207	1.270	1.332	1.219	1.332	1.207	1.221
854																																																																																					1.147	1.208	1.168	1.173	1.185	1.200	1.264	1.325	1.212	1.326	1.201	1.215
855																																																																																					1.139	1.200	1.161	1.165	1.179	1.195	1.258	1.319	1.207	1.321	1.196	1.210
856																																																																																					1.132	1.193	1.153	1.158	1.173	1.189	1.252	1.313	1.202	1.315	1.192	1.205
857																																																																																					1.124	1.186	1.146	1.151	1.168	1.184	1.246	1.306	1.196	1.309	1.186	1.200
858																																																																																					1.117	1.178	1.138	1.144	1.162	1.177	1.240	1.300	1.190	1.303	1.181	1.195
859																																																																																					1.110	1.171	1.131	1.138	1.156	1.172	1.236	1.294	1.185	1.298	1.177	1.190
860																																																																																					1.102	1.163	1.124	1.131	1.151	1.166	1.230	1.287	1.179	1.292	1.172	1.185
861																																																																																					1.096	1.156	1.117	1.124	1.145	1.160	1.224	1.281	1.174	1.287	1.167	1.180
862																																																																																					1.087	1.148	1.109	1.117	1.139	1.155	1.218	1.274	1.168	1.280	1.161	1.174
863																																																																																					1.080	1.141	1.101	1.110	1.133	1.149	1.212	1.267	1.162	1.275	1.157	1.169
864																																																																																					1.073	1.134	1.095	1.103	1.127	1.143	1.206	1.261	1.156	1.269	1.151	1.164
865																																																																																					1.066	1.127	1.088	1.096	1.120	1.137	1.200	1.254	1.150	1.263	1.146	1.159
866																																																																																					1.058	1.119	1.080	1.089	1.115	1.131	1.193	1.248	1.144	1.257	1.140	1.153
867																																																																																					1.052	1.112	1.073	1.083	1.109	1.125	1.188	1.241	1.139	1.251	1.135	1.149
868																																																																																					1.043	1.103	1.065	1.075	1.102	1.119	1.181	1.234	1.132	1.244	1.129	1.143
869																																																																																					1.036	1.096	1.058	1.068	1.096	1.112	1.175	1.227	1.126	1.238	1.124	1.137
870																																																																																					1.030	1.089	1.051	1.062	1.090	1.107	1.170	1.221	1.121	1.232	1.119	1.132
871																																																																																					1.023	1.082	1.044	1.055	1.085	1.101	1.164	1.214	1.115	1.227	1.113	1.127
872																																																																																					1.016	1.075	1.037	1.048	1.079	1.095	1.158	1.207	1.109	1.221	1.109	1.122
873																																																																																					1.009	1.068	1.031	1.041	1.073	1.089	1.152	1.201	1.104	1.215	1.103	1.116
874																																																																																					1.002	1.060	1.023	1.034	1.066	1.083	1.146	1.194	1.097	1.208	1.097	1.110
875																																																																																					0.994	1.052	1.015	1.026	1.060	1.077	1.139	1.186	1.091	1.201	1.091	1.104
876																																																																																					0.986	1.044	1.007	1.019	1.053	1.070	1.132	1.179	1.084	1.194	1.085	1.098
877																																																																																					0.978	1.036	0.999	1.011	1.046	1.063	1.125	1.171	1.077	1.187	1.079	1.092
878																																																																																					0.968	1.025	0.989	1.001	1.038	1.054	1.116	1.162	1.068	1.178	1.071	1.086
879																																																																																					0.958	1.015	0.978	0.990	1.028	1.045	1.106	1.151	1.059	1.168	1.062	1.077
880																																																																																					0.949	1.007	0.970	0.982	1.021	1.037	1.098	1.143	1.052	1.161	1.056	1.070
881																																																																																					0.944	1.001	0.964	0.977	1.016	1.032	1.093	1.138	1.048	1.156	1.051	1.065
882																																																																																					0.941	0.998	0.961	0.974	1.013	1.029	1.091	1.134	1.044	1.152	1.048	1.060
883																																																																																					0.937	0.994	0.957	0.971	1.010	1.026	1.088	1.130	1.041	1.149	1.046	1.057
884																																																																																					0.933	0.990	0.953	0.967	1.006	1.022	1.085	1.126	1.037	1.144	1.042	1.053
885																																																																																					0.926	0.982	0.946	0.961	1.000	1.016	1.078	1.119	1.030	1.137	1.036	1.047
886																																																																																					0.917	0.972	0.936	0.951	0.991	1.007	1.069	1.109	1.021	1.128	1.028	1.039
887																																																																																					0.907	0.963	0.927	0.942	0.983	0.998	1.060	1.100	1.013	1.120	1.020	1.031
888																																																																																					0.900	0.955	0.919	0.934	0.976	0.991	1.053	1.093	1.006	1.113	1.014	1.025
889																																																																																					0.892	0.947	0.911	0.927	0.969	0.985	1.046	1.085	1.000	1.106	1.008	1.018
890																																																																																					0.885	0.940	0.904	0.919	0.963	0.978	1.038	1.077	0.992	1.099	1.001	1.012
891																																																																																					0.877	0.932	0.896	0.911	0.955	0.970	1.032	1.070	0.986	1.091	0.994	1.006
892																																																																																					0.869	0.923	0.888	0.903	0.948	0.963	1.023	1.061	0.978	1.083	0.987	0.999
893																																																																																					0.859	0.913	0.878	0.893	0.940	0.954	1.014	1.052	0.969	1.074	0.979	0.991
894																																																																																					0.853	0.907	0.872	0.887	0.933	0.948	1.008	1.045	0.964	1.068	0.974	0.985
895																																																																																					0.848	0.902	0.867	0.882	0.929	0.943	1.003	1.040	0.959	1.063	0.969	0.980
896																																																																																					0.845	0.898	0.862	0.879	0.925	0.940	1.000	1.035	0.955	1.058	0.966	0.976
897																																																																																					0.840	0.892	0.858	0.874	0.920	0.935	0.995	1.030	0.951	1.053	0.961	0.971
898																																																																																					0.834	0.887	0.852	0.869	0.915	0.930	0.990	1.024	0.945	1.047	0.956	0.966
899																																																																																					0.826	0.878	0.843	0.860	0.907	0.922	0.981	1.015	0.937	1.039	0.949	0.959
900																																																																																					0.819	0.870	0.836	0.853	0.900	0.915	0.974	1.008	0.930	1.032	0.942	0.953
901																																																																																					0.810	0.861	0.827	0.844	0.892	0.906	0.965	0.999	0.922	1.023	0.934	0.946
902																																																																																					0.801	0.852	0.819	0.835	0.885	0.898	0.956	0.990	0.914	1.015	0.926	0.938
903																																																																																					0.794	0.845	0.811	0.828	0.878	0.892	0.950	0.983	0.908	1.008	0.920	0.931
904																																																																																					0.790	0.840	0.806	0.823	0.873	0.887	0.945	0.977	0.903	1.003	0.916	0.926
905																																																																																					0.787	0.837	0.803	0.820	0.870	0.884	0.942	0.973	0.899	0.999	0.913	0.922
906																																																																																					0.783	0.833	0.799	0.817	0.866	0.880	0.939	0.970	0.896	0.995	0.909	0.919
907																																																																																					0.779	0.828	0.794	0.813	0.861	0.875	0.934	0.964	0.891	0.990	0.905	0.914
908																																																																																					0.771	0.820	0.787	0.805	0.855	0.868	0.926	0.956	0.884	0.982	0.898	0.907
909																																																																																					0.763	0.812	0.779	0.797	0.847	0.861	0.918	0.948	0.876	0.974	0.891	0.900
910																																																																																					0.756	0.804	0.771	0.789	0.840	0.854	0.911	0.940	0.869	0.967	0.883	0.894
911																																																																																					0.750	0.798	0.765	0.783	0.834	0.848	0.904	0.933	0.863	0.960	0.878	0.888
912																																																																																					0.743	0.790	0.757	0.775	0.827	0.840	0.896	0.925	0.856	0.952	0.871	0.882
913																																																																																					0.736	0.782	0.750	0.767	0.820	0.833	0.888	0.917	0.848	0.944	0.863	0.875
914																																																																																					0.728	0.774	0.743	0.760	0.813	0.826	0.881	0.909	0.842	0.937	0.857	0.868
915																																																																																					0.723	0.769	0.738	0.755	0.808	0.821	0.876	0.904	0.837	0.932	0.852	0.863
916																																																																																					0.721	0.766	0.734	0.752	0.805	0.818	0.873	0.900	0.834	0.928	0.849	0.859
917																																																																																					0.718	0.764	0.732	0.750	0.802	0.815	0.871	0.897	0.831	0.925	0.846	0.856
918																																																																																					0.716	0.760	0.729	0.747	0.799	0.812	0.868	0.894	0.828	0.922	0.844	0.853
919																																																																																					0.712	0.756	0.725	0.744	0.795	0.808	0.864	0.889	0.823	0.916	0.840	0.848
920																																																																																					0.705	0.749	0.718	0.737	0.788	0.801	0.857	0.882	0.817	0.909	0.833	0.842
921																																																																																					0.699	0.743	0.711	0.730	0.782	0.795	0.850	0.875	0.811	0.903	0.827	0.836
922																																																																																					0.694	0.737	0.706	0.725	0.777	0.790	0.845	0.869	0.805	0.898	0.822	0.831
923																																																																																					0.689	0.732	0.701	0.720	0.772	0.784	0.839	0.863	0.800	0.892	0.817	0.826
924																																																																																					0.684	0.727	0.696	0.715	0.767	0.780	0.834	0.858	0.796	0.887	0.812	0.821
925																																																																																					0.679	0.721	0.691	0.710	0.762	0.774	0.829	0.852	0.790	0.881	0.806	0.816
926																																																																																					0.675	0.717	0.686	0.705	0.758	0.770	0.824	0.847	0.786	0.876	0.802	0.812
927																																																																																					0.670	0.712	0.682	0.701	0.753	0.765	0.819	0.842	0.781	0.871	0.798	0.807
928																																																																																					0.666	0.708	0.678	0.696	0.749	0.761	0.814	0.837	0.776	0.866	0.793	0.803
929																																																																																					0.662	0.703	0.673	0.692	0.745	0.757	0.809	0.832	0.772	0.862	0.789	0.799
930																																																																																					0.659	0.699	0.669	0.688	0.741	0.753	0.805	0.828	0.768	0.857	0.785	0.795
931																																																																																					0.655	0.695	0.666	0.684	0.737	0.749	0.801	0.824	0.764	0.853	0.782	0.791
932																																																																																					0.652	0.692	0.662	0.681	0.734	0.745	0.798	0.819	0.761	0.849	0.777	0.787
933																																																																																					0.648	0.688	0.658	0.677	0.730	0.741	0.793	0.815	0.756	0.844	0.774	0.784
934																																																																																					0.644	0.683	0.654	0.672	0.726	0.737	0.789	0.811	0.752	0.839	0.769	0.780
935																																																																																					0.641	0.680	0.650	0.669	0.722	0.733	0.784	0.806	0.748	0.835	0.765	0.776
936																																																																																					0.638	0.677	0.647	0.665	0.719	0.730	0.781	0.803	0.745	0.832	0.762	0.773
937																																																																																					0.636	0.674	0.645	0.663	0.716	0.727	0.778	0.800	0.742	0.829	0.760	0.770
938																																																																																					0.633	0.672	0.642	0.660	0.714	0.725	0.776	0.797	0.740	0.826	0.757	0.767
939																																																																																					0.631	0.669	0.640	0.658	0.712	0.722	0.774	0.794	0.738	0.823	0.755	0.764
940																																																																																					0.630	0.667	0.638	0.656	0.709	0.720	0.771	0.791	0.735	0.820	0.752	0.762
941																																																																																					0.627	0.664	0.635	0.653	0.707	0.717	0.768	0.788	0.732	0.817	0.750	0.759
942																																																																																					0.625	0.662	0.633	0.651	0.704	0.714	0.766	0.786	0.730	0.814	0.747	0.757
943																																																																																					0.623	0.660	0.631	0.649	0.702	0.712	0.763	0.783	0.727	0.811	0.745	0.754
944																																																																																					0.622	0.658	0.629	0.647	0.700	0.710	0.761	0.781	0.725	0.809	0.743	0.752
945																																																																																					0.620	0.657	0.628	0.645	0.699	0.709	0.759	0.779	0.724	0.807	0.741	0.751
946																																																																																					0.620	0.656	0.627	0.644	0.698	0.707	0.758	0.778	0.722	0.806	0.739	0.749
947																																																																																					0.619	0.655	0.626	0.643	0.697	0.706	0.756	0.776	0.721	0.804	0.738	0.748
948																																																																																					0.619	0.654	0.626	0.643	0.696	0.706	0.756	0.776	0.721	0.803	0.738	0.748
949																																																																																					0.620	0.655	0.626	0.643	0.696	0.705	0.756	0.776	0.720	0.803	0.737	0.747
950																																																																																					0.620	0.655	0.626	0.643	0.696	0.705	0.756	0.776	0.720	0.803	0.737	0.748
951																																																																																					0.621	0.656	0.627	0.644	0.697	0.706	0.757	0.776	0.721	0.803	0.738	0.748
952																																																																																					0.623	0.657	0.628	0.645	0.698	0.707	0.758	0.777	0.722	0.804	0.739	0.748
953																																																																																					0.624	0.659	0.629	0.646	0.699	0.708	0.758	0.778	0.722	0.805	0.739	0.749
954																																																																																					0.626	0.660	0.631	0.648	0.700	0.709	0.760	0.779	0.723	0.805	0.740	0.750
955																																																																																					0.627	0.661	0.632	0.649	0.701	0.710	0.760	0.780	0.724	0.806	0.741	0.751
956																																																																																					0.628	0.662	0.633	0.650	0.702	0.710	0.761	0.781	0.725	0.807	0.741	0.752
957																																																																																					0.629	0.662	0.633	0.650	0.702	0.710	0.761	0.781	0.725	0.806	0.741	0.751
958																																																																																					0.629	0.662	0.633	0.650	0.702	0.710	0.760	0.780	0.724	0.806	0.740	0.751
959																																																																																					0.628	0.661	0.632	0.649	0.701	0.709	0.758	0.779	0.723	0.804	0.739	0.750
960																																																																																					0.627	0.660	0.631	0.647	0.699	0.707	0.757	0.777	0.721	0.802	0.737	0.748
961																																																																																					0.625	0.658	0.629	0.645	0.697	0.705	0.754	0.775	0.719	0.800	0.735	0.746
962																																																																																					0.623	0.656	0.627	0.643	0.695	0.702	0.752	0.772	0.716	0.797	0.732	0.743
963																																																																																					0.621	0.653	0.625	0.640	0.692	0.700	0.748	0.769	0.714	0.794	0.729	0.740
964																																																																																					0.618	0.650	0.622	0.637	0.689	0.696	0.745	0.765	0.710	0.790	0.726	0.737
965																																																																																					0.615	0.647	0.619	0.634	0.686	0.693	0.742	0.761	0.707	0.786	0.723	0.734
966																																																																																					0.612	0.644	0.615	0.631	0.682	0.689	0.738	0.757	0.703	0.782	0.719	0.730
967																																																																																					0.609	0.640	0.612	0.627	0.678	0.685	0.734	0.753	0.699	0.778	0.715	0.727
968																																																																																					0.606	0.637	0.609	0.624	0.675	0.682	0.730	0.750	0.696	0.774	0.712	0.723
969																																																																																					0.603	0.634	0.606	0.621	0.672	0.679	0.727	0.746	0.693	0.770	0.708	0.720
970																																																																																					0.600	0.630	0.602	0.618	0.668	0.675	0.723	0.742	0.689	0.766	0.705	0.715
971																																																																																					0.597	0.627	0.599	0.614	0.664	0.671	0.719	0.738	0.685	0.762	0.701	0.712
972																																																																																					0.593	0.623	0.596	0.611	0.661	0.668	0.715	0.734	0.682	0.758	0.697	0.708
973																																																																																					0.590	0.619	0.592	0.607	0.657	0.664	0.711	0.729	0.677	0.753	0.693	0.704
974																																																																																					0.586	0.615	0.588	0.603	0.652	0.659	0.706	0.724	0.672	0.748	0.688	0.699
975																																																																																					0.581	0.610	0.583	0.598	0.647	0.654	0.700	0.718	0.667	0.742	0.682	0.694
976																																																																																					0.576	0.604	0.579	0.593	0.642	0.648	0.694	0.712	0.661	0.735	0.677	0.689
977																																																																																					0.571	0.600	0.574	0.588	0.637	0.643	0.688	0.708	0.657	0.731	0.672	0.684
978																																																																																					0.568	0.597	0.571	0.585	0.634	0.640	0.685	0.704	0.654	0.728	0.669	0.680
979																																																																																					0.566	0.595	0.568	0.583	0.632	0.638	0.683	0.701	0.652	0.725	0.666	0.677
980																																																																																					0.565	0.593	0.567	0.581	0.629	0.636	0.682	0.699	0.650	0.723	0.664	0.674
981																																																																																					0.564	0.591	0.565	0.580	0.627	0.634	0.681	0.696	0.648	0.721	0.663	0.672
982																																																																																					0.561	0.588	0.562	0.577	0.624	0.630	0.677	0.692	0.644	0.716	0.659	0.668
983																																																																																					0.556	0.583	0.557	0.573	0.619	0.625	0.671	0.686	0.638	0.710	0.654	0.663
984																																																																																					0.550	0.576	0.551	0.566	0.612	0.619	0.663	0.679	0.632	0.703	0.647	0.656
985																																																																																					0.542	0.569	0.544	0.559	0.605	0.612	0.655	0.672	0.625	0.696	0.640	0.650
986																																																																																					0.537	0.564	0.539	0.553	0.600	0.606	0.649	0.665	0.619	0.690	0.634	0.644
987																																																																																					0.532	0.558	0.534	0.548	0.594	0.600	0.643	0.659	0.614	0.683	0.628	0.638
988																																																																																					0.526	0.552	0.528	0.542	0.588	0.594	0.636	0.652	0.607	0.676	0.621	0.633
989																																																																																					0.520	0.545	0.522	0.536	0.582	0.587	0.628	0.645	0.600	0.667	0.614	0.626
990																																																																																					0.515	0.540	0.517	0.531	0.577	0.582	0.623	0.639	0.595	0.663	0.609	0.621
991																																																																																					0.511	0.537	0.513	0.526	0.573	0.578	0.619	0.635	0.592	0.659	0.605	0.617
992																																																																																					0.510	0.535	0.511	0.524	0.570	0.576	0.617	0.632	0.590	0.657	0.603	0.613
993																																																																																					0.508	0.533	0.509	0.523	0.568	0.574	0.616	0.630	0.588	0.655	0.601	0.611
994																																																																																					0.507	0.531	0.507	0.521	0.566	0.572	0.614	0.627	0.585	0.652	0.599	0.608
995																																																																																					0.503	0.527	0.504	0.518	0.562	0.568	0.611	0.623	0.581	0.647	0.596	0.604
996																																																																																					0.499	0.522	0.499	0.514	0.556	0.563	0.605	0.617	0.575	0.641	0.590	0.599
997																																																																																					0.492	0.515	0.493	0.507	0.550	0.556	0.597	0.610	0.569	0.634	0.583	0.592
998																																																																																					0.485	0.509	0.486	0.501	0.543	0.549	0.590	0.602	0.562	0.627	0.576	0.585
999																																																																																					0.480	0.503	0.481	0.495	0.538	0.543	0.583	0.596	0.557	0.621	0.571	0.579

结果
	1	2	3	4	5	6	7	8	9	10	11	12
A	?????	?????	?????	?????	?????	?????	?????	?????	?????	?????	?????	?????	Mean Max OD [Spectrum]
B	?????	?????	?????	?????	?????	?????	?????	?????	?????	?????	?????	?????	Mean Max OD [Spectrum]
C	?????	?????	?????	?????	?????	?????	?????	?????	?????	?????	?????	?????	Mean Max OD [Spectrum]
D	?????	?????	?????	?????	?????	?????	?????	?????	?????	?????	?????	?????	Mean Max OD [Spectrum]
E	?????	?????	?????	?????	?????	?????	?????	?????	?????	?????	?????	?????	Mean Max OD [Spectrum]
F	?????	?????	?????	?????	?????	?????	?????	?????	?????	?????	?????	?????	Mean Max OD [Spectrum]
G	?????	?????	?????	?????	?????	?????	?????	?????	?????	?????	?????	?????	Mean Max OD [Spectrum]
H	1.455	1.472	1.430	1.403	1.346	1.355	1.408	1.493	1.356	1.462	1.317	1.337	Mean Max OD [Spectrum]

