

软件版本	3.11.19



实验文件路径:	
方案文件路径:	



板编号	板 1
日期	2023/4/24
时间	9:24:47
检测仪类型:	Epoch 2
检测仪序列号:	2205170B
检测类型	检测仪

程序详细信息

板类型	96 WELL PLATE
完成后弹出板	
检测	吸收光 光谱
	A1..A12
	开始: 400 nm,  停止: 999 nm,  步骤: 1 nm
	检测前校准
	检测速度: 正常,  延迟: 100 msec,  测量值/数据点: 8

Spectrum

波长	A1	A2	A3	A4	A5	A6	A7	A8	A9	A10	A11	A12	B1	B2	B3	B4	B5	B6	B7	B8	B9	B10	B11	B12	C1	C2	C3	C4	C5	C6	C7	C8	C9	C10	C11	C12	D1	D2	D3	D4	D5	D6	D7	D8	D9	D10	D11	D12	E1	E2	E3	E4	E5	E6	E7	E8	E9	E10	E11	E12	F1	F2	F3	F4	F5	F6	F7	F8	F9	F10	F11	F12	G1	G2	G3	G4	G5	G6	G7	G8	G9	G10	G11	G12	H1	H2	H3	H4	H5	H6	H7	H8	H9	H10	H11	H12
400	0.483	0.628	0.652	0.495	0.634	0.586	0.757	0.660	0.714	0.606	0.636	0.546																																																																																				
401	0.482	0.627	0.650	0.494	0.633	0.585	0.756	0.659	0.712	0.604	0.635	0.545																																																																																				
402	0.480	0.625	0.648	0.492	0.631	0.583	0.754	0.657	0.710	0.603	0.633	0.543																																																																																				
403	0.479	0.623	0.647	0.491	0.629	0.582	0.752	0.655	0.708	0.601	0.631	0.542																																																																																				
404	0.478	0.622	0.645	0.489	0.628	0.580	0.750	0.653	0.707	0.599	0.630	0.540																																																																																				
405	0.477	0.620	0.644	0.488	0.626	0.579	0.748	0.652	0.705	0.598	0.628	0.539																																																																																				
406	0.476	0.619	0.642	0.487	0.625	0.577	0.746	0.650	0.703	0.597	0.627	0.538																																																																																				
407	0.475	0.618	0.641	0.486	0.624	0.576	0.744	0.649	0.702	0.595	0.625	0.537																																																																																				
408	0.473	0.616	0.639	0.485	0.622	0.574	0.742	0.647	0.700	0.593	0.624	0.535																																																																																				
409	0.472	0.615	0.638	0.484	0.621	0.573	0.741	0.646	0.698	0.592	0.622	0.534																																																																																				
410	0.471	0.613	0.636	0.482	0.619	0.572	0.739	0.644	0.697	0.591	0.621	0.533																																																																																				
411	0.470	0.612	0.635	0.481	0.617	0.570	0.737	0.643	0.695	0.589	0.619	0.532																																																																																				
412	0.469	0.611	0.633	0.480	0.616	0.569	0.735	0.641	0.693	0.588	0.618	0.530																																																																																				
413	0.468	0.608	0.632	0.479	0.614	0.567	0.733	0.639	0.692	0.586	0.616	0.529																																																																																				
414	0.467	0.607	0.630	0.478	0.613	0.566	0.732	0.638	0.690	0.585	0.615	0.528																																																																																				
415	0.465	0.606	0.629	0.476	0.611	0.565	0.730	0.636	0.689	0.583	0.613	0.526																																																																																				
416	0.464	0.604	0.627	0.475	0.610	0.563	0.728	0.635	0.687	0.582	0.612	0.525																																																																																				
417	0.463	0.603	0.626	0.474	0.608	0.562	0.726	0.633	0.685	0.581	0.610	0.524																																																																																				
418	0.462	0.601	0.625	0.473	0.607	0.560	0.725	0.632	0.684	0.579	0.609	0.523																																																																																				
419	0.461	0.600	0.623	0.472	0.606	0.559	0.723	0.630	0.682	0.578	0.608	0.521																																																																																				
420	0.460	0.598	0.622	0.471	0.604	0.558	0.721	0.629	0.681	0.576	0.606	0.520																																																																																				
421	0.459	0.597	0.620	0.470	0.603	0.557	0.719	0.627	0.679	0.575	0.605	0.519																																																																																				
422	0.458	0.596	0.619	0.469	0.602	0.556	0.718	0.626	0.678	0.574	0.604	0.518																																																																																				
423	0.458	0.595	0.618	0.468	0.601	0.555	0.717	0.625	0.677	0.573	0.603	0.517																																																																																				
424	0.457	0.594	0.617	0.467	0.599	0.553	0.715	0.624	0.675	0.572	0.602	0.516																																																																																				
425	0.456	0.592	0.615	0.466	0.598	0.552	0.714	0.622	0.674	0.571	0.600	0.515																																																																																				
426	0.455	0.591	0.614	0.465	0.597	0.551	0.712	0.621	0.673	0.569	0.599	0.514																																																																																				
427	0.454	0.590	0.613	0.464	0.596	0.550	0.711	0.620	0.671	0.568	0.598	0.513																																																																																				
428	0.453	0.589	0.612	0.463	0.594	0.549	0.709	0.619	0.670	0.567	0.597	0.512																																																																																				
429	0.452	0.587	0.610	0.462	0.593	0.547	0.707	0.617	0.668	0.566	0.595	0.511																																																																																				
430	0.451	0.586	0.609	0.461	0.592	0.546	0.706	0.616	0.667	0.564	0.594	0.509																																																																																				
431	0.450	0.585	0.608	0.460	0.591	0.545	0.704	0.614	0.666	0.563	0.593	0.509																																																																																				
432	0.449	0.583	0.606	0.459	0.589	0.544	0.703	0.613	0.664	0.562	0.592	0.507																																																																																				
433	0.448	0.582	0.605	0.458	0.588	0.543	0.701	0.612	0.663	0.561	0.590	0.506																																																																																				
434	0.447	0.581	0.604	0.457	0.587	0.542	0.700	0.610	0.661	0.560	0.589	0.505																																																																																				
435	0.447	0.580	0.603	0.456	0.586	0.541	0.698	0.609	0.660	0.558	0.588	0.504																																																																																				
436	0.446	0.579	0.601	0.455	0.585	0.540	0.697	0.608	0.659	0.557	0.587	0.503																																																																																				
437	0.445	0.577	0.600	0.454	0.583	0.538	0.695	0.607	0.657	0.556	0.585	0.502																																																																																				
438	0.444	0.576	0.599	0.453	0.582	0.537	0.694	0.605	0.656	0.555	0.584	0.501																																																																																				
439	0.443	0.575	0.598	0.452	0.581	0.536	0.693	0.604	0.654	0.554	0.583	0.500																																																																																				
440	0.442	0.574	0.596	0.451	0.580	0.535	0.691	0.603	0.653	0.553	0.582	0.499																																																																																				
441	0.442	0.573	0.595	0.451	0.579	0.534	0.690	0.602	0.652	0.552	0.581	0.498																																																																																				
442	0.441	0.573	0.594	0.450	0.578	0.533	0.689	0.601	0.651	0.551	0.580	0.497																																																																																				
443	0.440	0.571	0.593	0.449	0.577	0.532	0.687	0.600	0.650	0.550	0.579	0.497																																																																																				
444	0.439	0.570	0.592	0.448	0.575	0.531	0.686	0.599	0.648	0.549	0.577	0.496																																																																																				
445	0.438	0.569	0.591	0.447	0.574	0.530	0.684	0.597	0.647	0.547	0.576	0.495																																																																																				
446	0.438	0.568	0.590	0.447	0.573	0.529	0.683	0.596	0.646	0.546	0.575	0.494																																																																																				
447	0.437	0.567	0.588	0.446	0.572	0.528	0.682	0.595	0.645	0.546	0.574	0.493																																																																																				
448	0.436	0.566	0.588	0.445	0.571	0.527	0.681	0.594	0.644	0.545	0.573	0.492																																																																																				
449	0.436	0.565	0.587	0.444	0.570	0.526	0.680	0.593	0.643	0.544	0.572	0.491																																																																																				
450	0.435	0.564	0.586	0.444	0.569	0.526	0.678	0.592	0.641	0.543	0.571	0.490																																																																																				
451	0.434	0.563	0.585	0.443	0.568	0.525	0.677	0.591	0.640	0.542	0.570	0.490																																																																																				
452	0.434	0.562	0.584	0.442	0.568	0.524	0.676	0.590	0.639	0.541	0.570	0.489																																																																																				
453	0.433	0.561	0.583	0.441	0.567	0.523	0.675	0.589	0.638	0.540	0.569	0.488																																																																																				
454	0.433	0.561	0.582	0.441	0.566	0.522	0.674	0.588	0.637	0.539	0.568	0.488																																																																																				
455	0.432	0.559	0.581	0.440	0.565	0.521	0.673	0.587	0.636	0.538	0.567	0.487																																																																																				
456	0.431	0.558	0.580	0.439	0.564	0.521	0.672	0.586	0.635	0.538	0.566	0.486																																																																																				
457	0.431	0.558	0.579	0.439	0.563	0.520	0.671	0.586	0.635	0.537	0.565	0.485																																																																																				
458	0.430	0.557	0.579	0.438	0.563	0.519	0.670	0.585	0.634	0.536	0.565	0.485																																																																																				
459	0.430	0.556	0.578	0.438	0.562	0.519	0.669	0.584	0.633	0.536	0.564	0.484																																																																																				
460	0.430	0.556	0.577	0.437	0.561	0.518	0.669	0.584	0.632	0.535	0.564	0.484																																																																																				
461	0.429	0.556	0.577	0.437	0.561	0.518	0.668	0.583	0.632	0.535	0.563	0.484																																																																																				
462	0.429	0.556	0.576	0.437	0.561	0.517	0.668	0.583	0.631	0.535	0.563	0.483																																																																																				
463	0.428	0.555	0.576	0.436	0.560	0.517	0.667	0.582	0.631	0.534	0.562	0.483																																																																																				
464	0.428	0.554	0.576	0.436	0.560	0.517	0.666	0.582	0.630	0.534	0.562	0.483																																																																																				
465	0.428	0.554	0.575	0.436	0.559	0.516	0.666	0.581	0.630	0.533	0.562	0.482																																																																																				
466	0.428	0.554	0.575	0.436	0.559	0.516	0.666	0.581	0.630	0.533	0.561	0.482																																																																																				
467	0.427	0.554	0.575	0.436	0.559	0.516	0.665	0.581	0.630	0.533	0.561	0.482																																																																																				
468	0.427	0.554	0.575	0.436	0.559	0.516	0.665	0.581	0.629	0.533	0.561	0.482																																																																																				
469	0.427	0.554	0.575	0.436	0.559	0.516	0.665	0.581	0.629	0.533	0.561	0.482																																																																																				
470	0.427	0.554	0.575	0.436	0.559	0.516	0.665	0.581	0.629	0.533	0.561	0.482																																																																																				
471	0.427	0.554	0.575	0.436	0.559	0.516	0.665	0.581	0.630	0.533	0.561	0.482																																																																																				
472	0.428	0.554	0.575	0.436	0.560	0.516	0.666	0.581	0.630	0.534	0.562	0.482																																																																																				
473	0.428	0.554	0.576	0.436	0.560	0.517	0.666	0.582	0.630	0.534	0.562	0.483																																																																																				
474	0.428	0.555	0.576	0.437	0.560	0.517	0.667	0.582	0.631	0.534	0.562	0.483																																																																																				
475	0.429	0.555	0.577	0.437	0.561	0.518	0.668	0.583	0.632	0.535	0.563	0.484																																																																																				
476	0.430	0.556	0.578	0.438	0.562	0.518	0.669	0.584	0.633	0.536	0.564	0.485																																																																																				
477	0.430	0.557	0.579	0.439	0.563	0.519	0.670	0.585	0.634	0.537	0.565	0.486																																																																																				
478	0.432	0.558	0.580	0.440	0.564	0.521	0.671	0.586	0.635	0.538	0.566	0.487																																																																																				
479	0.433	0.560	0.582	0.441	0.566	0.522	0.673	0.588	0.637	0.540	0.568	0.488																																																																																				
480	0.434	0.561	0.583	0.442	0.567	0.523	0.675	0.589	0.639	0.541	0.570	0.489																																																																																				
481	0.436	0.562	0.585	0.444	0.570	0.525	0.678	0.592	0.641	0.544	0.572	0.491																																																																																				
482	0.437	0.564	0.588	0.446	0.572	0.528	0.681	0.594	0.644	0.546	0.574	0.493																																																																																				
483	0.439	0.566	0.590	0.447	0.574	0.529	0.683	0.596	0.646	0.548	0.576	0.495																																																																																				
484	0.441	0.569	0.592	0.449	0.576	0.531	0.685	0.598	0.648	0.550	0.578	0.497																																																																																				
485	0.443	0.572	0.594	0.451	0.578	0.533	0.688	0.601	0.651	0.552	0.581	0.499																																																																																				
486	0.445	0.575	0.597	0.453	0.581	0.536	0.692	0.604	0.654	0.555	0.583	0.501																																																																																				
487	0.448	0.577	0.601	0.456	0.585	0.539	0.696	0.608	0.658	0.559	0.587	0.504																																																																																				
488	0.451	0.581	0.605	0.458	0.589	0.542	0.701	0.611	0.662	0.563	0.591	0.507																																																																																				
489	0.453	0.585	0.608	0.461	0.592	0.546	0.705	0.615	0.666	0.566	0.594	0.510																																																																																				
490	0.456	0.588	0.613	0.464	0.596	0.549	0.710	0.619	0.671	0.570	0.599	0.514																																																																																				
491	0.460	0.593	0.618	0.468	0.601	0.554	0.716	0.625	0.677	0.576	0.604	0.518																																																																																				
492	0.464	0.598	0.622	0.471	0.605	0.558	0.721	0.629	0.682	0.580	0.608	0.522																																																																																				
493	0.467	0.603	0.627	0.475	0.610	0.562	0.727	0.633	0.687	0.584	0.613	0.525																																																																																				
494	0.471	0.607	0.632	0.478	0.615	0.566	0.733	0.639	0.692	0.589	0.618	0.530																																																																																				
495	0.475	0.613	0.638	0.483	0.621	0.572	0.741	0.645	0.700	0.596	0.625	0.535																																																																																				
496	0.481	0.619	0.645	0.488	0.627	0.578	0.748	0.652	0.707	0.603	0.632	0.541																																																																																				
497	0.486	0.625	0.651	0.493	0.634	0.584	0.756	0.659	0.714	0.609	0.638	0.546																																																																																				
498	0.489	0.630	0.656	0.497	0.639	0.589	0.762	0.664	0.720	0.614	0.643	0.550																																																																																				
499	0.493	0.635	0.662	0.501	0.644	0.593	0.768	0.669	0.726	0.620	0.649	0.555																																																																																				
500	0.498	0.640	0.667	0.505	0.649	0.598	0.775	0.675	0.732	0.625	0.655	0.559																																																																																				
501	0.502	0.645	0.673	0.510	0.655	0.603	0.782	0.681	0.739	0.632	0.661	0.564																																																																																				
502	0.507	0.650	0.679	0.514	0.660	0.609	0.789	0.687	0.745	0.638	0.667	0.569																																																																																				
503	0.511	0.656	0.684	0.518	0.665	0.613	0.795	0.692	0.751	0.643	0.672	0.574																																																																																				
504	0.515	0.661	0.690	0.522	0.671	0.618	0.802	0.698	0.757	0.649	0.678	0.578																																																																																				
505	0.519	0.665	0.694	0.526	0.675	0.622	0.808	0.703	0.763	0.654	0.682	0.582																																																																																				
506	0.522	0.669	0.699	0.529	0.679	0.626	0.813	0.708	0.767	0.659	0.688	0.586																																																																																				
507	0.525	0.673	0.703	0.532	0.683	0.630	0.818	0.711	0.772	0.664	0.692	0.589																																																																																				
508	0.528	0.676	0.706	0.534	0.686	0.632	0.822	0.715	0.776	0.667	0.695	0.592																																																																																				
509	0.531	0.678	0.709	0.537	0.689	0.635	0.826	0.718	0.779	0.671	0.698	0.594																																																																																				
510	0.533	0.680	0.711	0.539	0.691	0.637	0.828	0.720	0.782	0.674	0.701	0.596																																																																																				
511	0.534	0.682	0.712	0.540	0.692	0.638	0.830	0.722	0.783	0.676	0.703	0.598																																																																																				
512	0.535	0.682	0.713	0.540	0.693	0.639	0.831	0.723	0.784	0.677	0.704	0.598																																																																																				
513	0.535	0.682	0.713	0.541	0.693	0.639	0.831	0.723	0.785	0.678	0.704	0.599																																																																																				
514	0.535	0.682	0.712	0.540	0.692	0.639	0.831	0.722	0.784	0.678	0.703	0.598																																																																																				
515	0.535	0.680	0.711	0.540	0.691	0.637	0.830	0.721	0.783	0.677	0.702	0.598																																																																																				
516	0.534	0.678	0.709	0.538	0.689	0.636	0.827	0.719	0.781	0.676	0.701	0.596																																																																																				
517	0.532	0.675	0.706	0.536	0.686	0.633	0.824	0.716	0.778	0.673	0.698	0.594																																																																																				
518	0.530	0.673	0.703	0.534	0.684	0.631	0.821	0.713	0.775	0.671	0.695	0.592																																																																																				
519	0.528	0.670	0.700	0.532	0.680	0.628	0.817	0.710	0.771	0.668	0.692	0.590																																																																																				
520	0.526	0.667	0.696	0.530	0.677	0.625	0.813	0.706	0.768	0.665	0.689	0.587																																																																																				
521	0.523	0.662	0.692	0.527	0.673	0.621	0.808	0.702	0.763	0.661	0.684	0.584																																																																																				
522	0.519	0.657	0.687	0.523	0.668	0.616	0.802	0.697	0.758	0.657	0.679	0.580																																																																																				
523	0.515	0.652	0.681	0.519	0.662	0.611	0.796	0.691	0.751	0.651	0.673	0.575																																																																																				
524	0.511	0.646	0.675	0.515	0.657	0.606	0.789	0.685	0.745	0.646	0.667	0.571																																																																																				
525	0.506	0.640	0.668	0.510	0.651	0.600	0.782	0.678	0.738	0.640	0.661	0.566																																																																																				
526	0.502	0.634	0.662	0.505	0.644	0.594	0.774	0.672	0.731	0.633	0.654	0.560																																																																																				
527	0.497	0.627	0.654	0.500	0.637	0.588	0.766	0.664	0.724	0.627	0.647	0.555																																																																																				
528	0.493	0.622	0.649	0.496	0.632	0.583	0.759	0.659	0.718	0.621	0.642	0.551																																																																																				
529	0.489	0.618	0.643	0.492	0.627	0.578	0.753	0.653	0.712	0.616	0.636	0.547																																																																																				
530	0.485	0.613	0.638	0.488	0.621	0.573	0.746	0.647	0.706	0.610	0.631	0.542																																																																																				
531	0.480	0.606	0.631	0.483	0.614	0.566	0.738	0.640	0.698	0.603	0.624	0.537																																																																																				
532	0.473	0.598	0.622	0.476	0.606	0.559	0.729	0.631	0.689	0.595	0.615	0.531																																																																																				
533	0.468	0.591	0.614	0.471	0.599	0.552	0.720	0.624	0.682	0.588	0.608	0.525																																																																																				
534	0.463	0.585	0.607	0.465	0.592	0.546	0.712	0.617	0.674	0.581	0.601	0.519																																																																																				
535	0.458	0.578	0.599	0.460	0.585	0.539	0.704	0.609	0.666	0.573	0.593	0.514																																																																																				
536	0.452	0.571	0.592	0.454	0.577	0.532	0.694	0.602	0.658	0.566	0.586	0.508																																																																																				
537	0.446	0.564	0.584	0.448	0.570	0.525	0.685	0.594	0.650	0.558	0.578	0.502																																																																																				
538	0.440	0.556	0.576	0.442	0.562	0.518	0.676	0.586	0.641	0.550	0.570	0.496																																																																																				
539	0.435	0.549	0.568	0.437	0.555	0.512	0.668	0.579	0.634	0.543	0.563	0.491																																																																																				
540	0.429	0.542	0.559	0.430	0.547	0.504	0.658	0.570	0.625	0.535	0.555	0.484																																																																																				
541	0.424	0.535	0.552	0.425	0.540	0.498	0.650	0.563	0.618	0.528	0.548	0.479																																																																																				
542	0.419	0.530	0.546	0.420	0.534	0.493	0.643	0.557	0.611	0.521	0.542	0.474																																																																																				
543	0.415	0.525	0.540	0.416	0.529	0.487	0.636	0.551	0.604	0.515	0.536	0.470																																																																																				
544	0.409	0.518	0.532	0.410	0.522	0.481	0.628	0.544	0.597	0.508	0.529	0.464																																																																																				
545	0.404	0.511	0.524	0.405	0.514	0.474	0.619	0.537	0.589	0.501	0.522	0.458																																																																																				
546	0.399	0.504	0.517	0.399	0.508	0.468	0.611	0.529	0.581	0.494	0.515	0.453																																																																																				
547	0.394	0.498	0.510	0.394	0.501	0.462	0.603	0.523	0.574	0.487	0.509	0.448																																																																																				
548	0.389	0.493	0.503	0.389	0.495	0.456	0.596	0.516	0.567	0.481	0.502	0.443																																																																																				
549	0.385	0.487	0.496	0.384	0.489	0.451	0.589	0.511	0.560	0.475	0.496	0.438																																																																																				
550	0.380	0.481	0.489	0.379	0.482	0.444	0.581	0.504	0.553	0.468	0.490	0.433																																																																																				
551	0.376	0.475	0.483	0.375	0.477	0.440	0.574	0.498	0.547	0.463	0.485	0.428																																																																																				
552	0.371	0.469	0.476	0.370	0.470	0.434	0.566	0.492	0.540	0.456	0.478	0.423																																																																																				
553	0.367	0.464	0.470	0.365	0.465	0.428	0.559	0.487	0.534	0.451	0.473	0.418																																																																																				
554	0.363	0.459	0.464	0.361	0.459	0.423	0.553	0.481	0.527	0.445	0.468	0.414																																																																																				
555	0.359	0.454	0.458	0.357	0.454	0.419	0.546	0.476	0.522	0.440	0.463	0.410																																																																																				
556	0.355	0.449	0.451	0.352	0.448	0.413	0.539	0.470	0.515	0.434	0.458	0.405																																																																																				
557	0.352	0.444	0.446	0.348	0.443	0.409	0.533	0.466	0.510	0.429	0.453	0.401																																																																																				
558	0.348	0.438	0.440	0.344	0.438	0.404	0.527	0.460	0.504	0.424	0.448	0.397																																																																																				
559	0.344	0.434	0.434	0.340	0.433	0.400	0.520	0.455	0.498	0.419	0.444	0.392																																																																																				
560	0.341	0.429	0.428	0.336	0.428	0.395	0.514	0.450	0.493	0.414	0.439	0.388																																																																																				
561	0.338	0.425	0.423	0.333	0.423	0.391	0.508	0.446	0.487	0.410	0.435	0.384																																																																																				
562	0.335	0.421	0.418	0.330	0.419	0.387	0.503	0.442	0.483	0.406	0.431	0.381																																																																																				
563	0.333	0.418	0.415	0.327	0.416	0.384	0.499	0.439	0.479	0.403	0.428	0.378																																																																																				
564	0.331	0.414	0.410	0.324	0.412	0.381	0.494	0.435	0.475	0.399	0.425	0.375																																																																																				
565	0.328	0.410	0.405	0.321	0.408	0.377	0.489	0.431	0.470	0.395	0.421	0.371																																																																																				
566	0.326	0.407	0.401	0.318	0.404	0.374	0.484	0.428	0.466	0.392	0.419	0.368																																																																																				
567	0.324	0.404	0.397	0.315	0.401	0.371	0.480	0.425	0.462	0.389	0.416	0.365																																																																																				
568	0.322	0.401	0.393	0.313	0.398	0.368	0.476	0.423	0.459	0.386	0.413	0.363																																																																																				
569	0.320	0.398	0.390	0.311	0.395	0.365	0.472	0.420	0.455	0.383	0.411	0.360																																																																																				
570	0.319	0.395	0.386	0.309	0.392	0.363	0.468	0.417	0.452	0.380	0.409	0.358																																																																																				
571	0.317	0.393	0.382	0.306	0.389	0.360	0.464	0.415	0.448	0.378	0.407	0.355																																																																																				
572	0.316	0.390	0.379	0.304	0.386	0.358	0.461	0.413	0.445	0.375	0.405	0.353																																																																																				
573	0.315	0.388	0.376	0.303	0.384	0.356	0.458	0.411	0.443	0.373	0.403	0.351																																																																																				
574	0.314	0.387	0.373	0.301	0.382	0.354	0.455	0.409	0.440	0.372	0.402	0.350																																																																																				
575	0.313	0.385	0.371	0.300	0.380	0.352	0.452	0.408	0.438	0.370	0.401	0.348																																																																																				
576	0.313	0.383	0.368	0.298	0.378	0.351	0.450	0.406	0.435	0.369	0.400	0.346																																																																																				
577	0.312	0.382	0.366	0.297	0.376	0.350	0.448	0.405	0.434	0.367	0.400	0.345																																																																																				
578	0.312	0.381	0.364	0.296	0.375	0.348	0.446	0.404	0.432	0.366	0.399	0.344																																																																																				
579	0.312	0.380	0.362	0.295	0.373	0.347	0.444	0.404	0.430	0.365	0.399	0.343																																																																																				
580	0.312	0.379	0.360	0.294	0.372	0.346	0.442	0.403	0.428	0.364	0.399	0.342																																																																																				
581	0.312	0.378	0.358	0.293	0.371	0.345	0.441	0.403	0.427	0.364	0.399	0.341																																																																																				
582	0.313	0.377	0.356	0.293	0.370	0.345	0.439	0.403	0.426	0.363	0.399	0.341																																																																																				
583	0.313	0.377	0.355	0.292	0.369	0.344	0.438	0.403	0.425	0.363	0.400	0.340																																																																																				
584	0.314	0.377	0.353	0.292	0.369	0.344	0.438	0.403	0.424	0.363	0.401	0.340																																																																																				
585	0.315	0.377	0.352	0.292	0.369	0.344	0.437	0.404	0.424	0.364	0.402	0.340																																																																																				
586	0.316	0.377	0.351	0.292	0.368	0.344	0.437	0.404	0.424	0.364	0.403	0.340																																																																																				
587	0.317	0.377	0.351	0.292	0.368	0.344	0.437	0.406	0.424	0.365	0.405	0.341																																																																																				
588	0.318	0.378	0.350	0.292	0.369	0.345	0.437	0.407	0.424	0.366	0.406	0.341																																																																																				
589	0.320	0.379	0.350	0.293	0.369	0.345	0.437	0.408	0.424	0.366	0.408	0.342																																																																																				
590	0.322	0.380	0.349	0.293	0.369	0.346	0.438	0.410	0.425	0.368	0.410	0.343																																																																																				
591	0.324	0.381	0.349	0.294	0.370	0.347	0.439	0.412	0.426	0.369	0.413	0.344																																																																																				
592	0.326	0.382	0.349	0.295	0.371	0.348	0.440	0.413	0.427	0.371	0.415	0.345																																																																																				
593	0.328	0.383	0.349	0.296	0.372	0.349	0.442	0.416	0.428	0.373	0.418	0.346																																																																																				
594	0.330	0.385	0.350	0.297	0.374	0.350	0.443	0.418	0.429	0.375	0.421	0.347																																																																																				
595	0.333	0.387	0.350	0.298	0.375	0.352	0.445	0.421	0.431	0.377	0.425	0.349																																																																																				
596	0.336	0.389	0.351	0.300	0.377	0.354	0.447	0.424	0.433	0.380	0.429	0.351																																																																																				
597	0.339	0.391	0.352	0.301	0.379	0.356	0.449	0.427	0.435	0.383	0.432	0.353																																																																																				
598	0.342	0.394	0.353	0.303	0.381	0.358	0.452	0.431	0.438	0.385	0.436	0.355																																																																																				
599	0.345	0.397	0.354	0.305	0.383	0.360	0.455	0.434	0.440	0.388	0.441	0.357																																																																																				
600	0.349	0.399	0.355	0.307	0.385	0.362	0.458	0.438	0.443	0.392	0.446	0.360																																																																																				
601	0.353	0.403	0.357	0.309	0.388	0.366	0.462	0.443	0.447	0.397	0.452	0.363																																																																																				
602	0.358	0.406	0.359	0.312	0.392	0.369	0.466	0.449	0.451	0.401	0.458	0.366																																																																																				
603	0.362	0.409	0.361	0.315	0.394	0.372	0.469	0.453	0.455	0.405	0.463	0.369																																																																																				
604	0.366	0.414	0.363	0.317	0.398	0.375	0.473	0.458	0.459	0.409	0.469	0.372																																																																																				
605	0.371	0.417	0.365	0.320	0.401	0.378	0.477	0.463	0.463	0.414	0.474	0.376																																																																																				
606	0.375	0.421	0.367	0.323	0.404	0.382	0.482	0.468	0.467	0.418	0.480	0.379																																																																																				
607	0.380	0.426	0.369	0.326	0.408	0.385	0.486	0.473	0.471	0.423	0.486	0.383																																																																																				
608	0.386	0.430	0.372	0.329	0.412	0.390	0.492	0.481	0.477	0.430	0.494	0.387																																																																																				
609	0.391	0.435	0.375	0.333	0.416	0.394	0.497	0.487	0.482	0.435	0.501	0.391																																																																																				
610	0.397	0.440	0.378	0.336	0.421	0.398	0.503	0.493	0.487	0.441	0.508	0.395																																																																																				
611	0.402	0.445	0.380	0.340	0.425	0.402	0.508	0.499	0.492	0.447	0.515	0.399																																																																																				
612	0.409	0.451	0.384	0.344	0.430	0.408	0.514	0.507	0.499	0.454	0.523	0.405																																																																																				
613	0.415	0.457	0.388	0.348	0.436	0.412	0.521	0.514	0.506	0.461	0.532	0.409																																																																																				
614	0.422	0.463	0.392	0.353	0.442	0.418	0.528	0.523	0.513	0.469	0.541	0.415																																																																																				
615	0.430	0.470	0.396	0.358	0.448	0.424	0.536	0.531	0.520	0.477	0.551	0.421																																																																																				
616	0.437	0.476	0.401	0.363	0.454	0.431	0.544	0.540	0.528	0.486	0.561	0.427																																																																																				
617	0.445	0.484	0.405	0.368	0.460	0.437	0.551	0.549	0.536	0.494	0.570	0.432																																																																																				
618	0.452	0.491	0.410	0.374	0.467	0.443	0.560	0.558	0.544	0.503	0.580	0.439																																																																																				
619	0.460	0.498	0.415	0.379	0.474	0.450	0.568	0.567	0.553	0.512	0.590	0.445																																																																																				
620	0.470	0.509	0.421	0.386	0.482	0.458	0.578	0.579	0.563	0.523	0.603	0.453																																																																																				
621	0.479	0.517	0.427	0.392	0.490	0.466	0.588	0.590	0.573	0.533	0.614	0.460																																																																																				
622	0.488	0.526	0.433	0.399	0.498	0.473	0.598	0.600	0.583	0.544	0.626	0.468																																																																																				
623	0.498	0.535	0.439	0.406	0.507	0.482	0.608	0.612	0.593	0.555	0.638	0.475																																																																																				
624	0.507	0.545	0.446	0.413	0.516	0.490	0.619	0.623	0.604	0.567	0.651	0.483																																																																																				
625	0.517	0.555	0.452	0.421	0.525	0.499	0.630	0.635	0.615	0.579	0.663	0.491																																																																																				
626	0.527	0.564	0.460	0.428	0.535	0.508	0.641	0.647	0.626	0.592	0.676	0.499																																																																																				
627	0.538	0.575	0.467	0.436	0.544	0.517	0.653	0.660	0.638	0.605	0.689	0.508																																																																																				
628	0.548	0.585	0.475	0.444	0.554	0.527	0.665	0.673	0.650	0.617	0.702	0.517																																																																																				
629	0.559	0.596	0.483	0.453	0.565	0.537	0.677	0.686	0.663	0.631	0.716	0.526																																																																																				
630	0.571	0.608	0.491	0.462	0.576	0.548	0.691	0.701	0.676	0.645	0.730	0.536																																																																																				
631	0.582	0.618	0.499	0.470	0.586	0.557	0.702	0.713	0.688	0.658	0.743	0.544																																																																																				
632	0.594	0.630	0.508	0.480	0.598	0.568	0.716	0.728	0.702	0.674	0.758	0.554																																																																																				
633	0.606	0.643	0.518	0.490	0.611	0.579	0.730	0.742	0.717	0.690	0.773	0.565																																																																																				
634	0.618	0.655	0.528	0.499	0.623	0.591	0.745	0.757	0.731	0.705	0.788	0.575																																																																																				
635	0.632	0.669	0.539	0.510	0.636	0.604	0.760	0.773	0.747	0.723	0.804	0.587																																																																																				
636	0.644	0.682	0.549	0.521	0.650	0.616	0.776	0.789	0.763	0.739	0.820	0.598																																																																																				
637	0.657	0.696	0.560	0.531	0.662	0.628	0.790	0.804	0.778	0.756	0.836	0.609																																																																																				
638	0.671	0.710	0.572	0.543	0.677	0.642	0.807	0.822	0.795	0.775	0.853	0.621																																																																																				
639	0.685	0.725	0.585	0.555	0.692	0.656	0.824	0.838	0.812	0.793	0.870	0.633																																																																																				
640	0.700	0.740	0.597	0.568	0.707	0.670	0.842	0.856	0.830	0.813	0.887	0.645																																																																																				
641	0.714	0.755	0.610	0.580	0.723	0.684	0.859	0.873	0.847	0.832	0.904	0.658																																																																																				
642	0.729	0.770	0.623	0.593	0.738	0.698	0.877	0.891	0.866	0.852	0.922	0.671																																																																																				
643	0.744	0.786	0.637	0.606	0.755	0.713	0.895	0.909	0.885	0.872	0.939	0.684																																																																																				
644	0.758	0.802	0.651	0.619	0.771	0.729	0.913	0.927	0.903	0.892	0.957	0.697																																																																																				
645	0.774	0.820	0.667	0.634	0.789	0.745	0.933	0.946	0.923	0.914	0.975	0.711																																																																																				
646	0.789	0.836	0.681	0.647	0.806	0.760	0.952	0.965	0.943	0.935	0.993	0.725																																																																																				
647	0.805	0.854	0.698	0.662	0.825	0.777	0.973	0.985	0.964	0.958	1.011	0.739																																																																																				
648	0.821	0.871	0.714	0.677	0.843	0.793	0.992	1.004	0.984	0.980	1.030	0.753																																																																																				
649	0.838	0.890	0.731	0.692	0.862	0.811	1.014	1.024	1.006	1.003	1.049	0.768																																																																																				
650	0.853	0.907	0.748	0.707	0.881	0.828	1.034	1.044	1.027	1.025	1.067	0.783																																																																																				
651	0.869	0.925	0.766	0.723	0.900	0.845	1.055	1.063	1.048	1.048	1.085	0.797																																																																																				
652	0.884	0.942	0.782	0.737	0.918	0.862	1.075	1.081	1.068	1.069	1.102	0.812																																																																																				
653	0.899	0.960	0.800	0.753	0.937	0.878	1.096	1.101	1.089	1.092	1.120	0.826																																																																																				
654	0.915	0.978	0.819	0.768	0.957	0.896	1.117	1.121	1.111	1.115	1.139	0.842																																																																																				
655	0.931	0.998	0.838	0.785	0.977	0.914	1.139	1.141	1.134	1.139	1.157	0.857																																																																																				
656	0.947	1.016	0.858	0.801	0.999	0.933	1.161	1.161	1.156	1.163	1.176	0.873																																																																																				
657	0.963	1.036	0.878	0.819	1.020	0.952	1.184	1.182	1.179	1.188	1.195	0.889																																																																																				
658	0.978	1.056	0.899	0.835	1.041	0.970	1.207	1.202	1.202	1.211	1.213	0.905																																																																																				
659	0.994	1.075	0.920	0.852	1.063	0.989	1.230	1.222	1.226	1.234	1.231	0.921																																																																																				
660	1.008	1.093	0.940	0.868	1.082	1.006	1.250	1.241	1.246	1.256	1.248	0.935																																																																																				
661	1.024	1.114	0.962	0.885	1.104	1.026	1.275	1.262	1.271	1.280	1.266	0.952																																																																																				
662	1.039	1.133	0.984	0.903	1.126	1.046	1.297	1.282	1.294	1.304	1.284	0.968																																																																																				
663	1.052	1.152	1.004	0.918	1.146	1.062	1.319	1.300	1.314	1.325	1.300	0.983																																																																																				
664	1.066	1.171	1.027	0.935	1.167	1.081	1.342	1.318	1.337	1.347	1.317	0.999																																																																																				
665	1.080	1.189	1.048	0.951	1.188	1.100	1.364	1.337	1.359	1.368	1.334	1.014																																																																																				
666	1.093	1.208	1.070	0.967	1.209	1.117	1.385	1.355	1.380	1.389	1.349	1.029																																																																																				
667	1.107	1.228	1.095	0.985	1.232	1.138	1.410	1.375	1.404	1.412	1.367	1.046																																																																																				
668	1.121	1.248	1.119	1.002	1.253	1.157	1.434	1.395	1.427	1.434	1.384	1.062																																																																																				
669	1.134	1.269	1.143	1.019	1.276	1.176	1.457	1.413	1.450	1.454	1.400	1.079																																																																																				
670	1.146	1.287	1.166	1.035	1.296	1.194	1.479	1.431	1.472	1.474	1.415	1.094																																																																																				
671	1.158	1.307	1.189	1.050	1.317	1.212	1.501	1.448	1.493	1.494	1.431	1.109																																																																																				
672	1.169	1.323	1.212	1.066	1.337	1.229	1.522	1.465	1.514	1.512	1.444	1.123																																																																																				
673	1.180	1.343	1.236	1.081	1.357	1.247	1.544	1.482	1.535	1.531	1.459	1.139																																																																																				
674	1.191	1.362	1.260	1.098	1.379	1.266	1.568	1.499	1.557	1.550	1.473	1.154																																																																																				
675	1.201	1.378	1.284	1.113	1.398	1.283	1.589	1.515	1.577	1.566	1.487	1.169																																																																																				
676	1.211	1.397	1.309	1.128	1.419	1.301	1.612	1.532	1.599	1.584	1.501	1.184																																																																																				
677	1.221	1.415	1.332	1.143	1.438	1.317	1.633	1.547	1.618	1.599	1.514	1.198																																																																																				
678	1.229	1.431	1.355	1.156	1.456	1.334	1.653	1.561	1.637	1.614	1.526	1.212																																																																																				
679	1.238	1.448	1.379	1.171	1.476	1.350	1.674	1.575	1.656	1.629	1.538	1.226																																																																																				
680	1.246	1.466	1.402	1.184	1.494	1.367	1.695	1.589	1.675	1.643	1.549	1.240																																																																																				
681	1.254	1.482	1.426	1.198	1.512	1.382	1.716	1.604	1.694	1.656	1.561	1.254																																																																																				
682	1.260	1.498	1.448	1.210	1.529	1.397	1.735	1.616	1.711	1.668	1.571	1.266																																																																																				
683	1.267	1.513	1.470	1.222	1.546	1.411	1.753	1.627	1.727	1.679	1.581	1.278																																																																																				
684	1.273	1.528	1.492	1.234	1.562	1.426	1.772	1.640	1.743	1.691	1.590	1.291																																																																																				
685	1.278	1.543	1.515	1.246	1.579	1.440	1.790	1.651	1.760	1.700	1.600	1.303																																																																																				
686	1.284	1.558	1.537	1.258	1.595	1.454	1.810	1.663	1.776	1.710	1.609	1.315																																																																																				
687	1.288	1.573	1.560	1.269	1.611	1.468	1.828	1.673	1.792	1.719	1.617	1.327																																																																																				
688	1.292	1.587	1.582	1.279	1.626	1.481	1.846	1.683	1.807	1.727	1.625	1.339																																																																																				
689	1.296	1.600	1.603	1.289	1.640	1.494	1.863	1.692	1.821	1.734	1.632	1.349																																																																																				
690	1.299	1.612	1.622	1.298	1.653	1.505	1.879	1.700	1.833	1.739	1.638	1.359																																																																																				
691	1.302	1.623	1.640	1.306	1.664	1.516	1.893	1.708	1.845	1.745	1.644	1.368																																																																																				
692	1.304	1.635	1.660	1.315	1.676	1.526	1.908	1.715	1.858	1.748	1.649	1.377																																																																																				
693	1.305	1.646	1.679	1.323	1.689	1.537	1.923	1.722	1.868	1.752	1.654	1.387																																																																																				
694	1.306	1.656	1.697	1.330	1.699	1.546	1.937	1.728	1.880	1.755	1.658	1.395																																																																																				
695	1.307	1.666	1.714	1.336	1.709	1.555	1.950	1.733	1.889	1.757	1.662	1.403																																																																																				
696	1.307	1.675	1.732	1.343	1.719	1.564	1.962	1.738	1.898	1.758	1.665	1.410																																																																																				
697	1.306	1.685	1.750	1.349	1.729	1.573	1.976	1.743	1.908	1.759	1.668	1.418																																																																																				
698	1.306	1.692	1.764	1.353	1.737	1.580	1.987	1.747	1.916	1.759	1.670	1.424																																																																																				
699	1.304	1.700	1.779	1.358	1.745	1.587	1.997	1.750	1.923	1.758	1.672	1.430																																																																																				
700	1.303	1.707	1.792	1.361	1.751	1.593	2.007	1.753	1.928	1.756	1.673	1.435																																																																																				
701	1.300	1.713	1.806	1.365	1.757	1.599	2.016	1.755	1.935	1.754	1.673	1.440																																																																																				
702	1.298	1.720	1.819	1.368	1.763	1.604	2.025	1.756	1.940	1.751	1.674	1.445																																																																																				
703	1.294	1.726	1.832	1.370	1.768	1.609	2.034	1.757	1.944	1.747	1.673	1.449																																																																																				
704	1.291	1.731	1.844	1.372	1.773	1.613	2.042	1.757	1.948	1.742	1.673	1.453																																																																																				
705	1.287	1.736	1.855	1.373	1.777	1.617	2.050	1.757	1.952	1.737	1.671	1.457																																																																																				
706	1.282	1.739	1.865	1.375	1.780	1.620	2.056	1.756	1.955	1.732	1.670	1.460																																																																																				
707	1.278	1.743	1.875	1.375	1.783	1.623	2.062	1.756	1.957	1.726	1.668	1.462																																																																																				
708	1.272	1.746	1.884	1.375	1.786	1.626	2.068	1.754	1.959	1.718	1.665	1.464																																																																																				
709	1.266	1.749	1.892	1.374	1.787	1.628	2.072	1.752	1.960	1.712	1.663	1.466																																																																																				
710	1.261	1.750	1.899	1.373	1.788	1.629	2.077	1.750	1.961	1.704	1.660	1.468																																																																																				
711	1.255	1.751	1.907	1.372	1.789	1.630	2.079	1.747	1.960	1.696	1.656	1.468																																																																																				
712	1.249	1.752	1.913	1.370	1.789	1.630	2.084	1.744	1.959	1.688	1.652	1.468																																																																																				
713	1.241	1.752	1.919	1.367	1.789	1.631	2.086	1.740	1.958	1.678	1.647	1.469																																																																																				
714	1.234	1.752	1.924	1.365	1.788	1.630	2.087	1.736	1.957	1.669	1.642	1.468																																																																																				
715	1.226	1.750	1.929	1.361	1.786	1.629	2.089	1.731	1.954	1.659	1.637	1.467																																																																																				
716	1.219	1.748	1.932	1.357	1.784	1.627	2.090	1.726	1.952	1.648	1.632	1.466																																																																																				
717	1.211	1.747	1.936	1.353	1.781	1.626	2.091	1.720	1.948	1.638	1.626	1.464																																																																																				
718	1.203	1.745	1.938	1.349	1.778	1.623	2.090	1.715	1.944	1.627	1.620	1.462																																																																																				
719	1.194	1.742	1.939	1.345	1.774	1.620	2.090	1.708	1.940	1.615	1.613	1.460																																																																																				
720	1.186	1.739	1.940	1.339	1.770	1.617	2.088	1.703	1.935	1.605	1.607	1.457																																																																																				
721	1.176	1.735	1.941	1.334	1.765	1.613	2.087	1.696	1.930	1.592	1.599	1.454																																																																																				
722	1.166	1.731	1.941	1.327	1.760	1.609	2.083	1.688	1.924	1.578	1.591	1.450																																																																																				
723	1.157	1.727	1.940	1.321	1.754	1.605	2.080	1.680	1.917	1.566	1.583	1.446																																																																																				
724	1.147	1.722	1.938	1.314	1.748	1.600	2.077	1.673	1.910	1.553	1.575	1.442																																																																																				
725	1.137	1.717	1.936	1.308	1.741	1.594	2.073	1.664	1.904	1.540	1.566	1.438																																																																																				
726	1.128	1.712	1.933	1.300	1.734	1.589	2.069	1.656	1.896	1.527	1.558	1.432																																																																																				
727	1.117	1.705	1.930	1.293	1.727	1.583	2.063	1.647	1.889	1.513	1.550	1.427																																																																																				
728	1.107	1.698	1.926	1.284	1.719	1.576	2.058	1.637	1.880	1.498	1.540	1.421																																																																																				
729	1.095	1.692	1.921	1.277	1.710	1.569	2.052	1.627	1.871	1.484	1.530	1.415																																																																																				
730	1.086	1.685	1.917	1.269	1.702	1.563	2.047	1.619	1.862	1.471	1.521	1.410																																																																																				
731	1.075	1.678	1.912	1.260	1.694	1.555	2.039	1.609	1.853	1.456	1.511	1.403																																																																																				
732	1.065	1.670	1.906	1.252	1.685	1.548	2.033	1.599	1.844	1.442	1.502	1.396																																																																																				
733	1.054	1.662	1.901	1.243	1.676	1.540	2.026	1.589	1.833	1.428	1.491	1.390																																																																																				
734	1.044	1.655	1.894	1.236	1.667	1.533	2.018	1.579	1.824	1.414	1.482	1.383																																																																																				
735	1.034	1.646	1.887	1.226	1.657	1.524	2.010	1.569	1.814	1.400	1.472	1.376																																																																																				
736	1.022	1.637	1.879	1.216	1.647	1.515	2.002	1.558	1.803	1.385	1.460	1.367																																																																																				
737	1.012	1.628	1.871	1.207	1.637	1.506	1.992	1.546	1.791	1.370	1.450	1.360																																																																																				
738	1.000	1.618	1.862	1.197	1.625	1.497	1.982	1.535	1.780	1.355	1.439	1.351																																																																																				
739	0.990	1.608	1.853	1.187	1.615	1.487	1.972	1.524	1.769	1.340	1.427	1.343																																																																																				
740	0.978	1.598	1.844	1.177	1.603	1.478	1.962	1.512	1.757	1.325	1.416	1.334																																																																																				
741	0.968	1.588	1.834	1.167	1.593	1.468	1.953	1.501	1.744	1.311	1.405	1.325																																																																																				
742	0.956	1.577	1.825	1.157	1.581	1.458	1.941	1.489	1.732	1.296	1.393	1.316																																																																																				
743	0.945	1.566	1.814	1.147	1.569	1.448	1.930	1.477	1.720	1.281	1.381	1.307																																																																																				
744	0.934	1.556	1.803	1.136	1.557	1.438	1.919	1.465	1.708	1.265	1.370	1.298																																																																																				
745	0.923	1.544	1.792	1.125	1.545	1.427	1.907	1.453	1.695	1.251	1.358	1.288																																																																																				
746	0.912	1.533	1.781	1.115	1.533	1.416	1.895	1.441	1.682	1.236	1.346	1.278																																																																																				
747	0.901	1.521	1.769	1.104	1.520	1.405	1.883	1.428	1.669	1.220	1.334	1.268																																																																																				
748	0.890	1.510	1.757	1.094	1.508	1.395	1.871	1.416	1.655	1.206	1.322	1.258																																																																																				
749	0.879	1.498	1.745	1.083	1.495	1.383	1.858	1.403	1.643	1.191	1.309	1.248																																																																																				
750	0.868	1.485	1.733	1.072	1.482	1.372	1.845	1.391	1.629	1.176	1.297	1.238																																																																																				
751	0.857	1.474	1.721	1.062	1.470	1.361	1.834	1.378	1.617	1.162	1.286	1.228																																																																																				
752	0.848	1.463	1.709	1.052	1.459	1.350	1.820	1.368	1.604	1.149	1.275	1.218																																																																																				
753	0.837	1.450	1.697	1.042	1.447	1.339	1.809	1.355	1.591	1.135	1.263	1.208																																																																																				
754	0.827	1.439	1.685	1.031	1.434	1.329	1.796	1.344	1.578	1.121	1.251	1.198																																																																																				
755	0.817	1.427	1.672	1.021	1.422	1.317	1.783	1.332	1.565	1.107	1.240	1.188																																																																																				
756	0.807	1.414	1.659	1.010	1.409	1.306	1.769	1.319	1.551	1.093	1.228	1.177																																																																																				
757	0.797	1.403	1.646	1.000	1.397	1.295	1.756	1.308	1.538	1.080	1.216	1.167																																																																																				
758	0.785	1.388	1.631	0.988	1.382	1.282	1.740	1.293	1.523	1.064	1.202	1.155																																																																																				
759	0.775	1.376	1.618	0.978	1.370	1.271	1.728	1.282	1.510	1.050	1.190	1.144																																																																																				
760	0.765	1.363	1.604	0.967	1.357	1.258	1.713	1.269	1.495	1.036	1.178	1.133																																																																																				
761	0.754	1.349	1.589	0.956	1.343	1.246	1.698	1.256	1.481	1.022	1.165	1.122																																																																																				
762	0.743	1.336	1.574	0.945	1.329	1.233	1.683	1.243	1.466	1.007	1.152	1.110																																																																																				
763	0.734	1.324	1.562	0.935	1.318	1.222	1.669	1.231	1.454	0.995	1.141	1.100																																																																																				
764	0.726	1.313	1.550	0.926	1.307	1.213	1.657	1.221	1.442	0.984	1.131	1.092																																																																																				
765	0.719	1.304	1.539	0.919	1.298	1.204	1.647	1.212	1.432	0.974	1.123	1.083																																																																																				
766	0.711	1.292	1.526	0.910	1.286	1.194	1.634	1.202	1.421	0.963	1.112	1.074																																																																																				
767	0.701	1.278	1.512	0.899	1.273	1.182	1.619	1.190	1.406	0.949	1.100	1.063																																																																																				
768	0.691	1.265	1.497	0.888	1.260	1.169	1.604	1.176	1.393	0.936	1.088	1.051																																																																																				
769	0.681	1.252	1.484	0.878	1.247	1.157	1.589	1.165	1.379	0.924	1.076	1.041																																																																																				
770	0.672	1.239	1.469	0.868	1.234	1.146	1.575	1.152	1.364	0.910	1.065	1.030																																																																																				
771	0.663	1.227	1.456	0.859	1.223	1.135	1.561	1.142	1.353	0.899	1.053	1.020																																																																																				
772	0.655	1.215	1.442	0.849	1.211	1.124	1.548	1.130	1.339	0.887	1.043	1.010																																																																																				
773	0.646	1.202	1.428	0.839	1.198	1.113	1.532	1.119	1.326	0.875	1.031	0.998																																																																																				
774	0.637	1.190	1.414	0.830	1.187	1.102	1.518	1.107	1.313	0.864	1.020	0.989																																																																																				
775	0.629	1.178	1.401	0.821	1.175	1.090	1.505	1.096	1.301	0.852	1.009	0.978																																																																																				
776	0.621	1.165	1.387	0.811	1.163	1.080	1.491	1.085	1.288	0.841	0.998	0.968																																																																																				
777	0.612	1.153	1.373	0.802	1.151	1.069	1.477	1.074	1.275	0.829	0.988	0.959																																																																																				
778	0.604	1.141	1.359	0.792	1.139	1.057	1.462	1.063	1.262	0.818	0.977	0.948																																																																																				
779	0.596	1.129	1.345	0.783	1.127	1.046	1.448	1.051	1.249	0.807	0.966	0.938																																																																																				
780	0.588	1.116	1.331	0.774	1.115	1.035	1.433	1.041	1.237	0.795	0.955	0.927																																																																																				
781	0.580	1.104	1.318	0.765	1.104	1.024	1.419	1.030	1.224	0.784	0.945	0.917																																																																																				
782	0.572	1.092	1.305	0.757	1.093	1.014	1.406	1.020	1.212	0.774	0.935	0.908																																																																																				
783	0.565	1.080	1.291	0.748	1.081	1.003	1.392	1.009	1.200	0.764	0.924	0.898																																																																																				
784	0.557	1.068	1.277	0.739	1.070	0.992	1.378	0.999	1.187	0.753	0.913	0.888																																																																																				
785	0.549	1.056	1.263	0.730	1.058	0.981	1.364	0.987	1.175	0.743	0.903	0.878																																																																																				
786	0.541	1.043	1.248	0.721	1.046	0.970	1.349	0.976	1.162	0.732	0.892	0.867																																																																																				
787	0.534	1.031	1.234	0.712	1.035	0.959	1.335	0.966	1.149	0.721	0.881	0.857																																																																																				
788	0.526	1.020	1.222	0.704	1.024	0.949	1.321	0.956	1.138	0.711	0.872	0.847																																																																																				
789	0.520	1.008	1.209	0.696	1.014	0.939	1.308	0.946	1.127	0.703	0.863	0.839																																																																																				
790	0.513	0.998	1.197	0.688	1.004	0.930	1.295	0.937	1.116	0.693	0.853	0.830																																																																																				
791	0.507	0.987	1.185	0.681	0.994	0.920	1.282	0.927	1.105	0.684	0.845	0.821																																																																																				
792	0.499	0.974	1.170	0.672	0.982	0.908	1.267	0.916	1.091	0.674	0.833	0.811																																																																																				
793	0.492	0.963	1.157	0.664	0.972	0.899	1.254	0.906	1.081	0.665	0.824	0.802																																																																																				
794	0.486	0.952	1.145	0.656	0.961	0.888	1.241	0.897	1.069	0.655	0.815	0.793																																																																																				
795	0.479	0.940	1.131	0.648	0.951	0.878	1.227	0.886	1.058	0.646	0.805	0.783																																																																																				
796	0.473	0.930	1.120	0.641	0.941	0.869	1.216	0.878	1.047	0.638	0.797	0.775																																																																																				
797	0.467	0.919	1.107	0.634	0.931	0.860	1.202	0.869	1.036	0.629	0.787	0.766																																																																																				
798	0.461	0.909	1.095	0.627	0.922	0.851	1.190	0.860	1.026	0.621	0.779	0.758																																																																																				
799	0.455	0.898	1.083	0.620	0.912	0.841	1.177	0.851	1.015	0.613	0.770	0.749																																																																																				
800	0.449	0.887	1.071	0.612	0.902	0.832	1.165	0.841	1.004	0.604	0.761	0.740																																																																																				
801	0.443	0.876	1.058	0.605	0.891	0.822	1.151	0.832	0.993	0.595	0.752	0.731																																																																																				
802	0.437	0.867	1.047	0.598	0.882	0.813	1.139	0.823	0.983	0.588	0.744	0.723																																																																																				
803	0.432	0.857	1.035	0.592	0.874	0.804	1.128	0.815	0.973	0.580	0.735	0.715																																																																																				
804	0.426	0.846	1.023	0.584	0.864	0.795	1.114	0.806	0.963	0.572	0.727	0.707																																																																																				
805	0.420	0.836	1.011	0.578	0.855	0.786	1.102	0.797	0.953	0.564	0.718	0.699																																																																																				
806	0.415	0.827	1.001	0.572	0.846	0.778	1.091	0.789	0.944	0.557	0.711	0.691																																																																																				
807	0.410	0.817	0.989	0.565	0.837	0.769	1.079	0.781	0.933	0.549	0.703	0.683																																																																																				
808	0.406	0.808	0.979	0.559	0.830	0.761	1.068	0.774	0.925	0.543	0.695	0.676																																																																																				
809	0.400	0.799	0.968	0.553	0.821	0.753	1.056	0.765	0.915	0.536	0.688	0.668																																																																																				
810	0.396	0.790	0.958	0.547	0.812	0.745	1.046	0.758	0.906	0.529	0.680	0.661																																																																																				
811	0.390	0.780	0.946	0.541	0.803	0.737	1.034	0.750	0.897	0.522	0.672	0.653																																																																																				
812	0.386	0.771	0.936	0.535	0.795	0.729	1.023	0.742	0.887	0.515	0.664	0.646																																																																																				
813	0.381	0.762	0.925	0.529	0.787	0.720	1.011	0.734	0.878	0.508	0.657	0.638																																																																																				
814	0.376	0.753	0.915	0.523	0.779	0.712	1.000	0.726	0.869	0.502	0.650	0.631																																																																																				
815	0.372	0.744	0.904	0.517	0.771	0.704	0.989	0.719	0.860	0.495	0.642	0.624																																																																																				
816	0.366	0.735	0.893	0.511	0.762	0.696	0.977	0.710	0.850	0.488	0.634	0.616																																																																																				
817	0.362	0.726	0.883	0.505	0.754	0.688	0.967	0.703	0.842	0.482	0.628	0.609																																																																																				
818	0.358	0.718	0.872	0.500	0.746	0.680	0.956	0.695	0.832	0.475	0.620	0.602																																																																																				
819	0.353	0.709	0.862	0.494	0.738	0.672	0.944	0.687	0.823	0.469	0.613	0.595																																																																																				
820	0.347	0.700	0.848	0.487	0.728	0.662	0.930	0.678	0.812	0.461	0.604	0.586																																																																																				
821	0.343	0.692	0.836	0.480	0.719	0.653	0.918	0.669	0.802	0.454	0.596	0.578																																																																																				
822	0.339	0.683	0.829	0.476	0.713	0.647	0.910	0.664	0.795	0.449	0.590	0.573																																																																																				
823	0.337	0.677	0.824	0.474	0.709	0.643	0.904	0.660	0.791	0.446	0.587	0.569																																																																																				
824	0.335	0.672	0.819	0.471	0.705	0.640	0.899	0.657	0.787	0.443	0.583	0.566																																																																																				
825	0.332	0.665	0.813	0.468	0.700	0.635	0.892	0.652	0.781	0.439	0.579	0.562																																																																																				
826	0.328	0.657	0.801	0.462	0.691	0.627	0.879	0.644	0.772	0.433	0.571	0.554																																																																																				
827	0.323	0.648	0.791	0.456	0.683	0.618	0.868	0.636	0.762	0.426	0.564	0.547																																																																																				
828	0.320	0.641	0.783	0.452	0.677	0.613	0.860	0.631	0.756	0.422	0.559	0.542																																																																																				
829	0.318	0.635	0.777	0.449	0.673	0.608	0.853	0.626	0.751	0.419	0.555	0.537																																																																																				
830	0.315	0.628	0.770	0.446	0.667	0.603	0.845	0.621	0.745	0.414	0.550	0.532																																																																																				
831	0.311	0.621	0.760	0.441	0.660	0.596	0.835	0.614	0.737	0.409	0.543	0.526																																																																																				
832	0.306	0.613	0.747	0.434	0.650	0.586	0.822	0.605	0.726	0.402	0.535	0.518																																																																																				
833	0.303	0.605	0.737	0.429	0.643	0.579	0.811	0.598	0.718	0.397	0.528	0.511																																																																																				
834	0.300	0.599	0.732	0.426	0.638	0.574	0.804	0.594	0.712	0.393	0.524	0.507																																																																																				
835	0.298	0.592	0.725	0.423	0.633	0.569	0.798	0.589	0.707	0.389	0.520	0.503																																																																																				
836	0.295	0.586	0.719	0.420	0.629	0.565	0.791	0.585	0.702	0.386	0.516	0.499																																																																																				
837	0.292	0.580	0.712	0.416	0.623	0.560	0.783	0.580	0.696	0.382	0.511	0.494																																																																																				
838	0.288	0.573	0.702	0.411	0.616	0.552	0.773	0.573	0.687	0.376	0.504	0.488																																																																																				
839	0.285	0.566	0.693	0.406	0.608	0.545	0.763	0.566	0.679	0.371	0.498	0.481																																																																																				
840	0.282	0.559	0.685	0.402	0.603	0.539	0.754	0.560	0.673	0.367	0.493	0.476																																																																																				
841	0.279	0.553	0.678	0.399	0.598	0.534	0.747	0.555	0.667	0.363	0.488	0.472																																																																																				
842	0.277	0.547	0.672	0.395	0.593	0.529	0.740	0.551	0.662	0.360	0.484	0.468																																																																																				
843	0.274	0.541	0.665	0.392	0.587	0.524	0.732	0.545	0.655	0.356	0.479	0.463																																																																																				
844	0.271	0.535	0.657	0.387	0.581	0.518	0.723	0.539	0.648	0.351	0.474	0.457																																																																																				
845	0.268	0.529	0.649	0.383	0.575	0.512	0.715	0.534	0.642	0.347	0.468	0.452																																																																																				
846	0.265	0.523	0.642	0.380	0.569	0.507	0.708	0.529	0.636	0.343	0.464	0.448																																																																																				
847	0.262	0.517	0.635	0.376	0.564	0.501	0.700	0.524	0.630	0.339	0.459	0.443																																																																																				
848	0.260	0.512	0.628	0.373	0.559	0.496	0.693	0.519	0.624	0.336	0.455	0.439																																																																																				
849	0.257	0.506	0.622	0.369	0.554	0.492	0.685	0.514	0.619	0.332	0.450	0.434																																																																																				
850	0.255	0.501	0.615	0.366	0.549	0.487	0.678	0.509	0.613	0.328	0.446	0.430																																																																																				
851	0.253	0.495	0.609	0.363	0.544	0.482	0.671	0.504	0.607	0.325	0.441	0.426																																																																																				
852	0.250	0.489	0.602	0.360	0.539	0.477	0.664	0.499	0.601	0.321	0.437	0.421																																																																																				
853	0.248	0.485	0.596	0.356	0.534	0.472	0.657	0.495	0.596	0.318	0.433	0.417																																																																																				
854	0.245	0.479	0.590	0.353	0.529	0.467	0.650	0.490	0.591	0.315	0.428	0.413																																																																																				
855	0.243	0.474	0.584	0.350	0.524	0.463	0.643	0.486	0.586	0.311	0.425	0.409																																																																																				
856	0.241	0.469	0.577	0.347	0.519	0.458	0.636	0.481	0.580	0.308	0.420	0.405																																																																																				
857	0.238	0.464	0.571	0.344	0.514	0.453	0.630	0.476	0.575	0.305	0.416	0.401																																																																																				
858	0.236	0.459	0.566	0.341	0.510	0.449	0.623	0.472	0.570	0.302	0.412	0.398																																																																																				
859	0.234	0.455	0.560	0.338	0.505	0.445	0.617	0.468	0.565	0.299	0.408	0.394																																																																																				
860	0.233	0.450	0.554	0.335	0.501	0.440	0.611	0.464	0.560	0.296	0.405	0.390																																																																																				
861	0.231	0.446	0.549	0.333	0.497	0.437	0.605	0.460	0.556	0.294	0.401	0.387																																																																																				
862	0.229	0.441	0.543	0.330	0.493	0.432	0.599	0.456	0.551	0.290	0.398	0.383																																																																																				
863	0.227	0.437	0.538	0.327	0.488	0.428	0.593	0.452	0.546	0.288	0.394	0.380																																																																																				
864	0.225	0.433	0.532	0.325	0.484	0.425	0.587	0.447	0.541	0.285	0.390	0.377																																																																																				
865	0.224	0.428	0.528	0.322	0.480	0.421	0.582	0.444	0.537	0.283	0.387	0.373																																																																																				
866	0.222	0.424	0.522	0.320	0.476	0.417	0.576	0.440	0.532	0.280	0.384	0.370																																																																																				
867	0.220	0.420	0.518	0.317	0.472	0.413	0.570	0.436	0.528	0.278	0.380	0.366																																																																																				
868	0.218	0.416	0.512	0.315	0.468	0.409	0.565	0.432	0.524	0.275	0.377	0.363																																																																																				
869	0.217	0.412	0.508	0.313	0.465	0.406	0.559	0.428	0.520	0.273	0.374	0.361																																																																																				
870	0.215	0.409	0.503	0.310	0.461	0.402	0.554	0.425	0.516	0.271	0.371	0.358																																																																																				
871	0.214	0.405	0.498	0.308	0.458	0.399	0.549	0.422	0.512	0.269	0.368	0.355																																																																																				
872	0.213	0.402	0.494	0.307	0.454	0.396	0.544	0.419	0.509	0.267	0.365	0.352																																																																																				
873	0.211	0.398	0.489	0.304	0.450	0.392	0.539	0.415	0.504	0.264	0.362	0.349																																																																																				
874	0.210	0.395	0.485	0.302	0.447	0.389	0.534	0.412	0.500	0.262	0.359	0.347																																																																																				
875	0.208	0.391	0.480	0.300	0.443	0.386	0.529	0.408	0.496	0.260	0.356	0.344																																																																																				
876	0.207	0.387	0.476	0.298	0.439	0.382	0.523	0.405	0.492	0.258	0.353	0.341																																																																																				
877	0.205	0.384	0.471	0.295	0.435	0.378	0.518	0.401	0.488	0.255	0.350	0.337																																																																																				
878	0.203	0.381	0.465	0.292	0.430	0.373	0.511	0.396	0.482	0.252	0.346	0.333																																																																																				
879	0.201	0.380	0.458	0.288	0.426	0.369	0.504	0.391	0.477	0.249	0.342	0.330																																																																																				
880	0.198	0.374	0.453	0.285	0.421	0.364	0.498	0.387	0.472	0.246	0.338	0.326																																																																																				
881	0.197	0.369	0.450	0.284	0.419	0.362	0.495	0.385	0.469	0.244	0.336	0.324																																																																																				
882	0.196	0.365	0.448	0.283	0.417	0.360	0.492	0.383	0.467	0.243	0.335	0.322																																																																																				
883	0.195	0.361	0.446	0.282	0.415	0.359	0.490	0.382	0.466	0.243	0.333	0.321																																																																																				
884	0.195	0.357	0.443	0.281	0.413	0.357	0.487	0.380	0.464	0.241	0.332	0.319																																																																																				
885	0.193	0.354	0.440	0.279	0.410	0.354	0.482	0.377	0.460	0.239	0.329	0.316																																																																																				
886	0.191	0.351	0.433	0.276	0.405	0.349	0.475	0.372	0.454	0.236	0.325	0.312																																																																																				
887	0.189	0.348	0.429	0.273	0.402	0.346	0.471	0.368	0.450	0.234	0.322	0.309																																																																																				
888	0.188	0.345	0.424	0.271	0.398	0.342	0.466	0.365	0.446	0.232	0.319	0.306																																																																																				
889	0.186	0.342	0.420	0.269	0.395	0.339	0.461	0.361	0.442	0.230	0.317	0.304																																																																																				
890	0.185	0.339	0.416	0.267	0.391	0.336	0.457	0.358	0.439	0.228	0.314	0.301																																																																																				
891	0.183	0.336	0.412	0.265	0.388	0.333	0.452	0.355	0.435	0.226	0.311	0.298																																																																																				
892	0.182	0.335	0.407	0.262	0.384	0.329	0.446	0.351	0.430	0.223	0.308	0.296																																																																																				
893	0.180	0.332	0.403	0.260	0.381	0.326	0.441	0.348	0.427	0.221	0.305	0.293																																																																																				
894	0.179	0.328	0.399	0.258	0.377	0.323	0.438	0.345	0.423	0.220	0.303	0.291																																																																																				
895	0.178	0.324	0.397	0.257	0.375	0.321	0.434	0.343	0.421	0.218	0.301	0.289																																																																																				
896	0.177	0.321	0.395	0.256	0.374	0.320	0.432	0.342	0.419	0.217	0.300	0.287																																																																																				
897	0.177	0.318	0.392	0.255	0.371	0.317	0.429	0.340	0.417	0.216	0.298	0.286																																																																																				
898	0.176	0.316	0.389	0.253	0.369	0.315	0.425	0.337	0.415	0.215	0.296	0.284																																																																																				
899	0.174	0.314	0.386	0.251	0.366	0.312	0.421	0.334	0.411	0.213	0.294	0.281																																																																																				
900	0.173	0.311	0.382	0.249	0.362	0.309	0.417	0.331	0.407	0.211	0.291	0.279																																																																																				
901	0.172	0.311	0.377	0.247	0.359	0.306	0.412	0.328	0.404	0.210	0.289	0.277																																																																																				
902	0.171	0.310	0.373	0.245	0.356	0.303	0.408	0.324	0.400	0.208	0.286	0.274																																																																																				
903	0.170	0.306	0.369	0.243	0.353	0.300	0.404	0.322	0.396	0.206	0.284	0.272																																																																																				
904	0.169	0.302	0.368	0.243	0.351	0.298	0.401	0.320	0.395	0.205	0.283	0.271																																																																																				
905	0.168	0.299	0.366	0.242	0.349	0.297	0.399	0.319	0.393	0.204	0.281	0.269																																																																																				
906	0.168	0.295	0.364	0.241	0.348	0.296	0.397	0.317	0.392	0.204	0.280	0.268																																																																																				
907	0.167	0.294	0.362	0.240	0.346	0.294	0.395	0.316	0.390	0.203	0.279	0.267																																																																																				
908	0.167	0.293	0.358	0.238	0.343	0.292	0.390	0.313	0.387	0.202	0.277	0.265																																																																																				
909	0.165	0.291	0.355	0.237	0.340	0.289	0.387	0.310	0.383	0.200	0.275	0.263																																																																																				
910	0.165	0.289	0.352	0.235	0.338	0.287	0.383	0.307	0.380	0.199	0.273	0.261																																																																																				
911	0.164	0.288	0.349	0.234	0.336	0.285	0.380	0.305	0.378	0.198	0.271	0.259																																																																																				
912	0.163	0.287	0.346	0.233	0.333	0.282	0.376	0.303	0.375	0.197	0.269	0.258																																																																																				
913	0.163	0.288	0.343	0.231	0.330	0.280	0.373	0.300	0.372	0.195	0.267	0.256																																																																																				
914	0.162	0.286	0.340	0.230	0.328	0.278	0.369	0.297	0.369	0.194	0.265	0.254																																																																																				
915	0.161	0.283	0.338	0.229	0.326	0.276	0.367	0.296	0.367	0.194	0.264	0.253																																																																																				
916	0.161	0.279	0.337	0.229	0.325	0.276	0.365	0.295	0.366	0.193	0.264	0.252																																																																																				
917	0.161	0.276	0.336	0.228	0.324	0.275	0.364	0.295	0.365	0.193	0.263	0.251																																																																																				
918	0.161	0.273	0.335	0.229	0.323	0.274	0.363	0.294	0.365	0.193	0.263	0.251																																																																																				
919	0.161	0.273	0.334	0.228	0.322	0.273	0.361	0.292	0.363	0.193	0.262	0.250																																																																																				
920	0.161	0.272	0.331	0.227	0.320	0.272	0.359	0.291	0.361	0.192	0.261	0.249																																																																																				
921	0.161	0.272	0.329	0.227	0.318	0.270	0.356	0.289	0.359	0.192	0.260	0.248																																																																																				
922	0.161	0.271	0.327	0.226	0.317	0.269	0.354	0.288	0.357	0.192	0.259	0.247																																																																																				
923	0.161	0.270	0.326	0.226	0.315	0.268	0.352	0.287	0.356	0.192	0.258	0.246																																																																																				
924	0.161	0.269	0.324	0.226	0.314	0.267	0.350	0.286	0.354	0.192	0.257	0.245																																																																																				
925	0.162	0.269	0.323	0.226	0.313	0.266	0.349	0.285	0.353	0.192	0.257	0.245																																																																																				
926	0.162	0.269	0.322	0.226	0.312	0.265	0.347	0.284	0.352	0.192	0.257	0.244																																																																																				
927	0.163	0.268	0.321	0.226	0.311	0.265	0.346	0.283	0.351	0.193	0.257	0.244																																																																																				
928	0.164	0.269	0.320	0.227	0.311	0.264	0.345	0.283	0.350	0.193	0.256	0.244																																																																																				
929	0.164	0.268	0.319	0.227	0.310	0.264	0.344	0.282	0.350	0.194	0.257	0.244																																																																																				
930	0.165	0.268	0.319	0.228	0.310	0.264	0.343	0.283	0.349	0.194	0.257	0.244																																																																																				
931	0.166	0.268	0.318	0.228	0.309	0.264	0.342	0.282	0.349	0.195	0.257	0.244																																																																																				
932	0.167	0.268	0.318	0.229	0.309	0.264	0.341	0.282	0.348	0.196	0.257	0.243																																																																																				
933	0.169	0.270	0.318	0.230	0.309	0.264	0.341	0.282	0.348	0.198	0.258	0.244																																																																																				
934	0.170	0.271	0.317	0.231	0.309	0.264	0.341	0.283	0.348	0.199	0.259	0.244																																																																																				
935	0.172	0.272	0.317	0.232	0.309	0.264	0.340	0.283	0.348	0.200	0.259	0.245																																																																																				
936	0.173	0.273	0.317	0.233	0.309	0.265	0.340	0.283	0.348	0.201	0.260	0.245																																																																																				
937	0.174	0.272	0.317	0.234	0.310	0.266	0.340	0.284	0.348	0.203	0.261	0.246																																																																																				
938	0.176	0.272	0.318	0.236	0.310	0.266	0.340	0.284	0.348	0.204	0.262	0.246																																																																																				
939	0.177	0.272	0.318	0.237	0.311	0.267	0.341	0.285	0.349	0.205	0.263	0.247																																																																																				
940	0.179	0.273	0.319	0.238	0.311	0.268	0.341	0.286	0.350	0.207	0.264	0.248																																																																																				
941	0.181	0.275	0.320	0.240	0.313	0.269	0.342	0.287	0.351	0.209	0.265	0.249																																																																																				
942	0.184	0.277	0.321	0.243	0.314	0.270	0.342	0.288	0.351	0.211	0.267	0.250																																																																																				
943	0.186	0.279	0.322	0.245	0.315	0.271	0.343	0.289	0.353	0.213	0.269	0.252																																																																																				
944	0.188	0.281	0.323	0.247	0.317	0.273	0.344	0.291	0.354	0.216	0.271	0.253																																																																																				
945	0.191	0.283	0.325	0.250	0.318	0.275	0.346	0.293	0.355	0.219	0.273	0.255																																																																																				
946	0.194	0.285	0.327	0.253	0.320	0.277	0.348	0.295	0.357	0.222	0.276	0.257																																																																																				
947	0.198	0.288	0.329	0.256	0.323	0.280	0.350	0.298	0.360	0.226	0.278	0.259																																																																																				
948	0.202	0.292	0.332	0.260	0.326	0.283	0.353	0.301	0.363	0.230	0.282	0.262																																																																																				
949	0.206	0.295	0.335	0.264	0.329	0.286	0.356	0.304	0.365	0.234	0.285	0.265																																																																																				
950	0.210	0.298	0.338	0.269	0.332	0.289	0.359	0.307	0.369	0.238	0.289	0.268																																																																																				
951	0.214	0.301	0.342	0.273	0.336	0.293	0.363	0.311	0.372	0.243	0.293	0.271																																																																																				
952	0.218	0.304	0.345	0.277	0.339	0.296	0.366	0.315	0.375	0.247	0.297	0.274																																																																																				
953	0.223	0.308	0.349	0.282	0.343	0.300	0.370	0.319	0.379	0.252	0.301	0.278																																																																																				
954	0.229	0.313	0.353	0.287	0.347	0.304	0.374	0.323	0.384	0.258	0.306	0.282																																																																																				
955	0.234	0.318	0.358	0.292	0.351	0.309	0.379	0.328	0.388	0.263	0.311	0.286																																																																																				
956	0.238	0.323	0.361	0.297	0.355	0.312	0.382	0.332	0.391	0.268	0.315	0.289																																																																																				
957	0.242	0.327	0.364	0.301	0.358	0.316	0.386	0.335	0.394	0.272	0.319	0.292																																																																																				
958	0.246	0.330	0.367	0.305	0.361	0.319	0.388	0.338	0.397	0.276	0.322	0.295																																																																																				
959	0.249	0.332	0.369	0.308	0.363	0.321	0.390	0.340	0.399	0.279	0.324	0.297																																																																																				
960	0.251	0.334	0.370	0.310	0.364	0.322	0.391	0.341	0.400	0.281	0.326	0.298																																																																																				
961	0.253	0.335	0.371	0.312	0.365	0.323	0.392	0.342	0.401	0.283	0.327	0.299																																																																																				
962	0.254	0.336	0.371	0.313	0.365	0.324	0.392	0.343	0.401	0.284	0.328	0.300																																																																																				
963	0.255	0.337	0.371	0.313	0.365	0.324	0.392	0.343	0.401	0.285	0.328	0.300																																																																																				
964	0.256	0.337	0.371	0.314	0.365	0.324	0.392	0.343	0.400	0.286	0.329	0.300																																																																																				
965	0.257	0.338	0.370	0.314	0.365	0.324	0.391	0.343	0.400	0.286	0.329	0.300																																																																																				
966	0.257	0.338	0.369	0.314	0.364	0.323	0.390	0.342	0.399	0.286	0.328	0.300																																																																																				
967	0.257	0.337	0.369	0.314	0.363	0.323	0.389	0.341	0.398	0.286	0.328	0.299																																																																																				
968	0.257	0.337	0.368	0.314	0.362	0.322	0.388	0.341	0.397	0.286	0.328	0.299																																																																																				
969	0.257	0.336	0.367	0.313	0.361	0.322	0.387	0.340	0.396	0.286	0.327	0.298																																																																																				
970	0.257	0.335	0.366	0.313	0.361	0.321	0.386	0.339	0.395	0.286	0.326	0.298																																																																																				
971	0.257	0.334	0.365	0.313	0.359	0.320	0.385	0.338	0.394	0.286	0.326	0.297																																																																																				
972	0.257	0.333	0.364	0.312	0.358	0.319	0.383	0.337	0.393	0.286	0.325	0.297																																																																																				
973	0.257	0.332	0.363	0.312	0.357	0.318	0.382	0.336	0.392	0.285	0.325	0.296																																																																																				
974	0.256	0.332	0.361	0.311	0.356	0.317	0.380	0.335	0.390	0.284	0.323	0.295																																																																																				
975	0.256	0.332	0.359	0.309	0.354	0.316	0.378	0.333	0.388	0.284	0.322	0.294																																																																																				
976	0.255	0.335	0.357	0.308	0.352	0.314	0.375	0.331	0.386	0.282	0.320	0.292																																																																																				
977	0.253	0.333	0.355	0.307	0.350	0.312	0.373	0.329	0.383	0.281	0.319	0.290																																																																																				
978	0.253	0.329	0.353	0.306	0.348	0.311	0.371	0.328	0.382	0.280	0.318	0.289																																																																																				
979	0.252	0.325	0.352	0.305	0.347	0.310	0.370	0.327	0.381	0.280	0.317	0.288																																																																																				
980	0.252	0.321	0.352	0.305	0.346	0.310	0.370	0.327	0.380	0.280	0.317	0.288																																																																																				
981	0.252	0.318	0.351	0.304	0.346	0.309	0.369	0.326	0.380	0.279	0.316	0.288																																																																																				
982	0.251	0.317	0.350	0.304	0.345	0.308	0.367	0.325	0.379	0.279	0.315	0.287																																																																																				
983	0.250	0.317	0.347	0.301	0.342	0.306	0.364	0.322	0.376	0.277	0.313	0.285																																																																																				
984	0.247	0.315	0.343	0.298	0.338	0.302	0.360	0.319	0.372	0.274	0.310	0.282																																																																																				
985	0.245	0.314	0.340	0.296	0.335	0.300	0.357	0.316	0.368	0.271	0.307	0.279																																																																																				
986	0.243	0.312	0.337	0.293	0.332	0.297	0.354	0.313	0.365	0.269	0.305	0.277																																																																																				
987	0.241	0.310	0.334	0.291	0.329	0.294	0.350	0.310	0.362	0.267	0.302	0.275																																																																																				
988	0.239	0.311	0.331	0.288	0.326	0.291	0.347	0.306	0.359	0.265	0.299	0.273																																																																																				
989	0.237	0.313	0.327	0.285	0.323	0.288	0.343	0.303	0.355	0.262	0.296	0.270																																																																																				
990	0.234	0.309	0.324	0.282	0.319	0.286	0.340	0.300	0.352	0.259	0.293	0.267																																																																																				
991	0.233	0.303	0.322	0.281	0.317	0.284	0.337	0.299	0.350	0.257	0.291	0.266																																																																																				
992	0.232	0.298	0.321	0.280	0.316	0.283	0.336	0.298	0.348	0.257	0.291	0.265																																																																																				
993	0.231	0.293	0.320	0.279	0.315	0.282	0.335	0.297	0.348	0.256	0.290	0.264																																																																																				
994	0.231	0.290	0.319	0.279	0.314	0.281	0.334	0.296	0.347	0.256	0.289	0.263																																																																																				
995	0.230	0.289	0.317	0.277	0.312	0.280	0.332	0.294	0.345	0.254	0.287	0.261																																																																																				
996	0.228	0.288	0.314	0.274	0.309	0.277	0.328	0.291	0.342	0.252	0.285	0.259																																																																																				
997	0.224	0.285	0.310	0.271	0.305	0.273	0.324	0.287	0.337	0.248	0.281	0.256																																																																																				
998	0.221	0.283	0.306	0.267	0.301	0.270	0.320	0.283	0.333	0.245	0.278	0.253																																																																																				
999	0.219	0.280	0.302	0.264	0.298	0.267	0.316	0.281	0.330	0.242	0.275	0.250																																																																																				

结果
	1	2	3	4	5	6	7	8	9	10	11	12
A	1.307	1.752	1.941	1.375	1.789	1.631	2.091	1.757	1.961	1.759	1.674	1.469	Mean Max OD [Spectrum]
B	?????	?????	?????	?????	?????	?????	?????	?????	?????	?????	?????	?????	Mean Max OD [Spectrum]
C	?????	?????	?????	?????	?????	?????	?????	?????	?????	?????	?????	?????	Mean Max OD [Spectrum]
D	?????	?????	?????	?????	?????	?????	?????	?????	?????	?????	?????	?????	Mean Max OD [Spectrum]
E	?????	?????	?????	?????	?????	?????	?????	?????	?????	?????	?????	?????	Mean Max OD [Spectrum]
F	?????	?????	?????	?????	?????	?????	?????	?????	?????	?????	?????	?????	Mean Max OD [Spectrum]
G	?????	?????	?????	?????	?????	?????	?????	?????	?????	?????	?????	?????	Mean Max OD [Spectrum]
H	?????	?????	?????	?????	?????	?????	?????	?????	?????	?????	?????	?????	Mean Max OD [Spectrum]

