

软件版本	3.11.19



实验文件路径:	
方案文件路径:	



板编号	板 1
日期	2023/4/16
时间	10:43:19
检测仪类型:	Epoch 2
检测仪序列号:	2205170B
检测类型	检测仪

程序详细信息

板类型	96 WELL PLATE
完成后弹出板	
检测	吸收光 光谱
	H1..H12
	开始: 400 nm,  停止: 999 nm,  步骤: 1 nm
	检测前校准
	检测速度: 正常,  延迟: 100 msec,  测量值/数据点: 8

Spectrum

波长	A1	A2	A3	A4	A5	A6	A7	A8	A9	A10	A11	A12	B1	B2	B3	B4	B5	B6	B7	B8	B9	B10	B11	B12	C1	C2	C3	C4	C5	C6	C7	C8	C9	C10	C11	C12	D1	D2	D3	D4	D5	D6	D7	D8	D9	D10	D11	D12	E1	E2	E3	E4	E5	E6	E7	E8	E9	E10	E11	E12	F1	F2	F3	F4	F5	F6	F7	F8	F9	F10	F11	F12	G1	G2	G3	G4	G5	G6	G7	G8	G9	G10	G11	G12	H1	H2	H3	H4	H5	H6	H7	H8	H9	H10	H11	H12
400																																																																																					0.621	0.640	0.702	0.605	0.637	0.585	0.640	0.758	0.942	0.956	0.906	1.029
401																																																																																					0.620	0.639	0.700	0.604	0.636	0.584	0.639	0.757	0.940	0.954	0.905	1.027
402																																																																																					0.618	0.637	0.698	0.602	0.634	0.582	0.637	0.755	0.937	0.951	0.903	1.024
403																																																																																					0.617	0.635	0.696	0.601	0.632	0.581	0.635	0.753	0.935	0.949	0.901	1.022
404																																																																																					0.615	0.634	0.695	0.599	0.631	0.579	0.634	0.751	0.933	0.947	0.899	1.020
405																																																																																					0.614	0.632	0.693	0.598	0.629	0.578	0.632	0.750	0.931	0.945	0.897	1.018
406																																																																																					0.612	0.631	0.692	0.597	0.628	0.577	0.631	0.748	0.929	0.944	0.895	1.016
407																																																																																					0.611	0.630	0.690	0.595	0.627	0.576	0.629	0.746	0.927	0.942	0.894	1.014
408																																																																																					0.610	0.628	0.689	0.594	0.625	0.574	0.628	0.745	0.925	0.940	0.892	1.012
409																																																																																					0.608	0.627	0.687	0.593	0.624	0.573	0.626	0.743	0.923	0.938	0.890	1.010
410																																																																																					0.607	0.625	0.686	0.591	0.622	0.572	0.625	0.742	0.921	0.936	0.889	1.009
411																																																																																					0.606	0.624	0.684	0.590	0.621	0.571	0.624	0.740	0.919	0.934	0.887	1.007
412																																																																																					0.604	0.623	0.683	0.589	0.620	0.569	0.622	0.738	0.917	0.933	0.885	1.005
413																																																																																					0.603	0.621	0.681	0.587	0.618	0.568	0.621	0.737	0.915	0.931	0.884	1.003
414																																																																																					0.602	0.620	0.680	0.586	0.617	0.567	0.619	0.735	0.913	0.929	0.882	1.001
415																																																																																					0.600	0.619	0.678	0.585	0.616	0.566	0.618	0.734	0.912	0.927	0.880	1.000
416																																																																																					0.599	0.618	0.677	0.584	0.614	0.564	0.617	0.732	0.910	0.926	0.879	0.998
417																																																																																					0.598	0.616	0.676	0.583	0.613	0.563	0.616	0.731	0.908	0.924	0.878	0.996
418																																																																																					0.597	0.615	0.674	0.581	0.612	0.562	0.614	0.729	0.906	0.923	0.876	0.995
419																																																																																					0.595	0.614	0.673	0.580	0.610	0.561	0.613	0.728	0.905	0.921	0.875	0.993
420																																																																																					0.594	0.612	0.672	0.579	0.609	0.560	0.612	0.727	0.903	0.920	0.874	0.992
421																																																																																					0.593	0.611	0.670	0.578	0.608	0.559	0.611	0.725	0.902	0.919	0.872	0.991
422																																																																																					0.592	0.610	0.669	0.577	0.607	0.558	0.610	0.724	0.900	0.917	0.871	0.989
423																																																																																					0.591	0.609	0.668	0.576	0.606	0.557	0.609	0.723	0.899	0.916	0.870	0.988
424																																																																																					0.590	0.608	0.667	0.575	0.605	0.556	0.608	0.722	0.898	0.915	0.869	0.987
425																																																																																					0.589	0.607	0.666	0.574	0.604	0.555	0.607	0.721	0.896	0.914	0.868	0.986
426																																																																																					0.588	0.606	0.665	0.573	0.603	0.554	0.606	0.720	0.895	0.913	0.867	0.985
427																																																																																					0.587	0.605	0.664	0.572	0.602	0.553	0.605	0.719	0.894	0.912	0.866	0.984
428																																																																																					0.586	0.604	0.663	0.571	0.601	0.552	0.604	0.717	0.892	0.911	0.865	0.982
429																																																																																					0.585	0.603	0.661	0.570	0.600	0.551	0.603	0.716	0.891	0.910	0.864	0.981
430																																																																																					0.584	0.602	0.660	0.569	0.599	0.550	0.602	0.715	0.890	0.908	0.863	0.980
431																																																																																					0.583	0.601	0.659	0.568	0.598	0.549	0.601	0.714	0.889	0.907	0.862	0.979
432																																																																																					0.582	0.600	0.658	0.567	0.597	0.548	0.600	0.713	0.887	0.906	0.861	0.978
433																																																																																					0.581	0.599	0.657	0.566	0.596	0.548	0.599	0.712	0.886	0.905	0.860	0.977
434																																																																																					0.580	0.598	0.656	0.566	0.595	0.547	0.598	0.711	0.885	0.904	0.859	0.976
435																																																																																					0.579	0.597	0.655	0.565	0.594	0.546	0.597	0.710	0.884	0.903	0.858	0.975
436																																																																																					0.578	0.596	0.654	0.564	0.593	0.545	0.596	0.709	0.883	0.902	0.857	0.974
437																																																																																					0.577	0.595	0.653	0.563	0.592	0.544	0.595	0.708	0.882	0.902	0.856	0.973
438																																																																																					0.576	0.594	0.652	0.562	0.591	0.543	0.594	0.707	0.880	0.901	0.856	0.972
439																																																																																					0.575	0.593	0.651	0.561	0.590	0.542	0.593	0.706	0.879	0.900	0.855	0.971
440																																																																																					0.575	0.593	0.650	0.560	0.589	0.542	0.592	0.705	0.879	0.899	0.854	0.971
441																																																																																					0.574	0.592	0.649	0.559	0.589	0.541	0.592	0.704	0.878	0.899	0.854	0.970
442																																																																																					0.573	0.591	0.648	0.559	0.588	0.540	0.591	0.703	0.877	0.898	0.853	0.969
443																																																																																					0.573	0.590	0.648	0.558	0.587	0.540	0.590	0.703	0.876	0.898	0.853	0.969
444																																																																																					0.572	0.590	0.647	0.557	0.587	0.539	0.590	0.702	0.875	0.897	0.852	0.968
445																																																																																					0.571	0.589	0.646	0.557	0.586	0.538	0.589	0.701	0.875	0.897	0.852	0.968
446																																																																																					0.571	0.588	0.645	0.556	0.585	0.538	0.588	0.700	0.874	0.896	0.852	0.968
447																																																																																					0.570	0.588	0.644	0.555	0.585	0.537	0.588	0.700	0.874	0.896	0.851	0.968
448																																																																																					0.569	0.587	0.644	0.555	0.584	0.537	0.587	0.699	0.873	0.896	0.851	0.967
449																																																																																					0.569	0.587	0.643	0.554	0.584	0.536	0.587	0.699	0.873	0.896	0.851	0.967
450																																																																																					0.568	0.586	0.643	0.554	0.583	0.536	0.586	0.698	0.873	0.896	0.851	0.968
451																																																																																					0.568	0.585	0.642	0.553	0.582	0.535	0.586	0.698	0.872	0.896	0.851	0.968
452																																																																																					0.568	0.585	0.642	0.553	0.582	0.535	0.585	0.697	0.872	0.896	0.851	0.968
453																																																																																					0.567	0.585	0.641	0.552	0.582	0.534	0.585	0.697	0.872	0.896	0.852	0.968
454																																																																																					0.567	0.584	0.641	0.552	0.581	0.534	0.584	0.697	0.872	0.896	0.852	0.969
455																																																																																					0.566	0.584	0.640	0.552	0.581	0.534	0.584	0.697	0.872	0.897	0.852	0.969
456																																																																																					0.566	0.583	0.640	0.551	0.580	0.534	0.584	0.697	0.872	0.897	0.853	0.970
457																																																																																					0.566	0.583	0.640	0.551	0.580	0.533	0.584	0.697	0.872	0.898	0.853	0.971
458																																																																																					0.566	0.583	0.640	0.551	0.580	0.533	0.583	0.696	0.873	0.898	0.854	0.971
459																																																																																					0.566	0.583	0.639	0.551	0.580	0.533	0.583	0.697	0.873	0.899	0.855	0.972
460																																																																																					0.566	0.583	0.639	0.551	0.580	0.533	0.583	0.697	0.874	0.900	0.856	0.973
461																																																																																					0.566	0.583	0.639	0.551	0.580	0.533	0.583	0.697	0.874	0.901	0.857	0.975
462																																																																																					0.566	0.583	0.640	0.551	0.580	0.533	0.584	0.698	0.875	0.902	0.858	0.976
463																																																																																					0.566	0.583	0.640	0.551	0.580	0.533	0.584	0.698	0.876	0.903	0.859	0.977
464																																																																																					0.566	0.583	0.640	0.551	0.580	0.533	0.584	0.698	0.877	0.905	0.860	0.979
465																																																																																					0.567	0.584	0.640	0.551	0.581	0.534	0.584	0.699	0.878	0.906	0.862	0.981
466																																																																																					0.567	0.584	0.641	0.552	0.581	0.534	0.585	0.700	0.879	0.908	0.864	0.983
467																																																																																					0.567	0.585	0.641	0.552	0.582	0.535	0.585	0.701	0.881	0.910	0.866	0.985
468																																																																																					0.568	0.585	0.642	0.553	0.582	0.535	0.586	0.702	0.883	0.912	0.867	0.987
469																																																																																					0.569	0.586	0.643	0.553	0.583	0.536	0.587	0.703	0.885	0.914	0.870	0.990
470																																																																																					0.570	0.587	0.644	0.554	0.584	0.536	0.587	0.704	0.887	0.917	0.872	0.993
471																																																																																					0.570	0.588	0.644	0.555	0.585	0.537	0.588	0.706	0.889	0.919	0.875	0.996
472																																																																																					0.571	0.589	0.646	0.556	0.586	0.538	0.589	0.707	0.891	0.923	0.878	1.000
473																																																																																					0.573	0.590	0.647	0.557	0.587	0.539	0.591	0.709	0.894	0.926	0.881	1.003
474																																																																																					0.574	0.591	0.649	0.558	0.588	0.541	0.592	0.711	0.897	0.930	0.885	1.008
475																																																																																					0.576	0.593	0.650	0.560	0.590	0.542	0.594	0.714	0.901	0.934	0.889	1.012
476																																																																																					0.577	0.595	0.652	0.561	0.592	0.544	0.595	0.716	0.904	0.938	0.893	1.017
477																																																																																					0.579	0.597	0.655	0.563	0.593	0.545	0.597	0.719	0.909	0.943	0.898	1.023
478																																																																																					0.581	0.599	0.657	0.565	0.596	0.547	0.600	0.722	0.913	0.948	0.903	1.029
479																																																																																					0.584	0.601	0.660	0.568	0.598	0.550	0.602	0.726	0.919	0.954	0.909	1.036
480																																																																																					0.586	0.604	0.663	0.570	0.601	0.552	0.605	0.729	0.924	0.960	0.915	1.042
481																																																																																					0.590	0.607	0.666	0.573	0.604	0.555	0.608	0.734	0.930	0.968	0.922	1.051
482																																																																																					0.593	0.611	0.670	0.577	0.607	0.558	0.612	0.739	0.938	0.977	0.931	1.061
483																																																																																					0.596	0.614	0.674	0.579	0.610	0.561	0.615	0.743	0.944	0.983	0.937	1.069
484																																																																																					0.598	0.617	0.677	0.582	0.613	0.564	0.618	0.747	0.950	0.990	0.944	1.076
485																																																																																					0.602	0.620	0.680	0.584	0.616	0.566	0.621	0.751	0.955	0.997	0.950	1.083
486																																																																																					0.605	0.623	0.684	0.588	0.620	0.570	0.624	0.757	0.963	1.006	0.959	1.093
487																																																																																					0.610	0.628	0.690	0.593	0.625	0.574	0.629	0.764	0.973	1.017	0.970	1.106
488																																																																																					0.615	0.633	0.695	0.597	0.630	0.578	0.634	0.770	0.982	1.027	0.979	1.117
489																																																																																					0.619	0.637	0.700	0.601	0.634	0.582	0.638	0.776	0.991	1.037	0.989	1.128
490																																																																																					0.624	0.643	0.706	0.606	0.639	0.587	0.644	0.784	1.002	1.050	1.001	1.143
491																																																																																					0.630	0.649	0.713	0.612	0.646	0.593	0.650	0.793	1.014	1.065	1.016	1.159
492																																																																																					0.635	0.654	0.718	0.617	0.651	0.597	0.655	0.800	1.025	1.077	1.027	1.172
493																																																																																					0.641	0.659	0.724	0.622	0.656	0.602	0.661	0.807	1.036	1.090	1.039	1.186
494																																																																																					0.646	0.666	0.731	0.627	0.663	0.608	0.667	0.816	1.048	1.104	1.053	1.202
495																																																																																					0.654	0.673	0.740	0.635	0.670	0.615	0.675	0.827	1.065	1.123	1.071	1.224
496																																																																																					0.662	0.681	0.749	0.642	0.678	0.622	0.683	0.839	1.081	1.143	1.090	1.245
497																																																																																					0.670	0.690	0.758	0.650	0.686	0.629	0.691	0.850	1.097	1.162	1.109	1.267
498																																																																																					0.675	0.695	0.764	0.655	0.692	0.635	0.697	0.858	1.111	1.177	1.123	1.284
499																																																																																					0.682	0.702	0.771	0.661	0.699	0.640	0.703	0.868	1.124	1.193	1.139	1.301
500																																																																																					0.689	0.709	0.779	0.668	0.705	0.647	0.710	0.877	1.140	1.211	1.156	1.322
501																																																																																					0.696	0.717	0.788	0.675	0.713	0.654	0.718	0.889	1.156	1.232	1.175	1.343
502																																																																																					0.703	0.724	0.796	0.682	0.720	0.660	0.726	0.900	1.173	1.252	1.194	1.365
503																																																																																					0.710	0.731	0.804	0.689	0.727	0.667	0.733	0.910	1.188	1.271	1.213	1.387
504																																																																																					0.718	0.739	0.813	0.696	0.735	0.674	0.741	0.922	1.207	1.294	1.234	1.411
505																																																																																					0.725	0.746	0.821	0.703	0.742	0.680	0.748	0.932	1.223	1.313	1.252	1.432
506																																																																																					0.732	0.753	0.829	0.709	0.749	0.687	0.755	0.943	1.240	1.334	1.273	1.455
507																																																																																					0.738	0.760	0.836	0.716	0.756	0.693	0.762	0.953	1.256	1.354	1.292	1.478
508																																																																																					0.744	0.766	0.843	0.722	0.762	0.699	0.769	0.963	1.272	1.374	1.310	1.499
509																																																																																					0.751	0.773	0.851	0.728	0.769	0.705	0.775	0.973	1.288	1.393	1.330	1.521
510																																																																																					0.757	0.779	0.857	0.734	0.775	0.711	0.782	0.983	1.304	1.414	1.350	1.544
511																																																																																					0.762	0.784	0.863	0.739	0.781	0.715	0.787	0.991	1.317	1.432	1.366	1.563
512																																																																																					0.767	0.789	0.869	0.744	0.786	0.720	0.793	1.000	1.332	1.450	1.384	1.584
513																																																																																					0.771	0.794	0.874	0.748	0.790	0.724	0.797	1.007	1.343	1.466	1.398	1.601
514																																																																																					0.775	0.798	0.879	0.752	0.794	0.728	0.802	1.013	1.355	1.482	1.414	1.618
515																																																																																					0.779	0.802	0.883	0.755	0.798	0.732	0.806	1.019	1.365	1.496	1.427	1.634
516																																																																																					0.782	0.805	0.887	0.758	0.802	0.735	0.809	1.025	1.375	1.511	1.441	1.650
517																																																																																					0.785	0.808	0.891	0.762	0.805	0.738	0.813	1.030	1.385	1.526	1.455	1.666
518																																																																																					0.787	0.810	0.893	0.764	0.808	0.740	0.816	1.034	1.392	1.536	1.465	1.677
519																																																																																					0.789	0.813	0.896	0.766	0.810	0.742	0.818	1.037	1.399	1.546	1.475	1.688
520																																																																																					0.791	0.814	0.897	0.767	0.812	0.744	0.820	1.040	1.405	1.555	1.483	1.698
521																																																																																					0.792	0.815	0.899	0.769	0.813	0.746	0.822	1.042	1.410	1.563	1.491	1.707
522																																																																																					0.793	0.816	0.900	0.770	0.815	0.747	0.823	1.044	1.414	1.571	1.498	1.715
523																																																																																					0.793	0.817	0.901	0.771	0.815	0.748	0.824	1.045	1.417	1.578	1.505	1.723
524																																																																																					0.793	0.817	0.901	0.771	0.816	0.748	0.825	1.045	1.420	1.583	1.510	1.729
525																																																																																					0.793	0.817	0.901	0.771	0.816	0.748	0.825	1.045	1.421	1.587	1.514	1.734
526																																																																																					0.792	0.816	0.901	0.770	0.815	0.748	0.825	1.044	1.422	1.590	1.516	1.736
527																																																																																					0.791	0.815	0.900	0.770	0.815	0.747	0.825	1.043	1.422	1.591	1.518	1.738
528																																																																																					0.790	0.814	0.898	0.769	0.814	0.747	0.824	1.042	1.421	1.591	1.518	1.738
529																																																																																					0.789	0.813	0.897	0.768	0.813	0.746	0.823	1.040	1.420	1.591	1.518	1.738
530																																																																																					0.787	0.811	0.896	0.767	0.812	0.745	0.822	1.038	1.418	1.589	1.517	1.737
531																																																																																					0.785	0.809	0.894	0.765	0.810	0.743	0.821	1.035	1.415	1.587	1.514	1.734
532																																																																																					0.782	0.806	0.890	0.762	0.808	0.741	0.819	1.031	1.410	1.582	1.510	1.729
533																																																																																					0.779	0.803	0.887	0.760	0.805	0.739	0.816	1.027	1.406	1.577	1.506	1.724
534																																																																																					0.776	0.800	0.884	0.757	0.803	0.737	0.814	1.023	1.401	1.572	1.501	1.718
535																																																																																					0.773	0.797	0.881	0.754	0.800	0.734	0.811	1.018	1.396	1.565	1.494	1.711
536																																																																																					0.769	0.793	0.877	0.751	0.796	0.731	0.808	1.013	1.389	1.557	1.487	1.702
537																																																																																					0.765	0.789	0.873	0.748	0.793	0.728	0.805	1.008	1.383	1.548	1.478	1.693
538																																																																																					0.761	0.784	0.868	0.744	0.789	0.724	0.801	1.002	1.375	1.538	1.469	1.683
539																																																																																					0.756	0.780	0.863	0.740	0.785	0.721	0.798	0.996	1.368	1.529	1.460	1.672
540																																																																																					0.751	0.775	0.857	0.735	0.780	0.717	0.793	0.989	1.359	1.517	1.449	1.659
541																																																																																					0.746	0.770	0.852	0.731	0.775	0.713	0.789	0.983	1.351	1.506	1.439	1.648
542																																																																																					0.742	0.766	0.847	0.727	0.771	0.709	0.785	0.977	1.344	1.496	1.429	1.637
543																																																																																					0.738	0.761	0.843	0.723	0.767	0.705	0.781	0.972	1.337	1.486	1.420	1.626
544																																																																																					0.732	0.755	0.836	0.718	0.762	0.701	0.776	0.964	1.328	1.473	1.408	1.613
545																																																																																					0.726	0.749	0.830	0.712	0.756	0.696	0.771	0.957	1.318	1.460	1.395	1.599
546																																																																																					0.720	0.743	0.823	0.707	0.750	0.691	0.765	0.949	1.308	1.446	1.382	1.584
547																																																																																					0.714	0.737	0.816	0.701	0.745	0.685	0.760	0.942	1.298	1.433	1.370	1.571
548																																																																																					0.708	0.731	0.810	0.696	0.739	0.680	0.754	0.934	1.289	1.420	1.358	1.557
549																																																																																					0.702	0.724	0.803	0.690	0.733	0.675	0.749	0.927	1.280	1.408	1.346	1.545
550																																																																																					0.695	0.717	0.795	0.684	0.727	0.669	0.742	0.918	1.269	1.393	1.333	1.530
551																																																																																					0.688	0.711	0.788	0.678	0.721	0.664	0.736	0.911	1.259	1.381	1.322	1.517
552																																																																																					0.681	0.703	0.780	0.671	0.713	0.657	0.730	0.902	1.249	1.367	1.308	1.502
553																																																																																					0.674	0.696	0.772	0.665	0.707	0.651	0.723	0.894	1.239	1.355	1.297	1.490
554																																																																																					0.667	0.689	0.764	0.658	0.700	0.645	0.716	0.886	1.229	1.342	1.285	1.476
555																																																																																					0.660	0.682	0.757	0.652	0.693	0.639	0.710	0.878	1.219	1.331	1.275	1.466
556																																																																																					0.652	0.674	0.748	0.644	0.685	0.632	0.702	0.869	1.209	1.318	1.263	1.453
557																																																																																					0.645	0.666	0.740	0.637	0.678	0.626	0.695	0.861	1.199	1.307	1.253	1.443
558																																																																																					0.636	0.658	0.730	0.629	0.669	0.618	0.687	0.851	1.188	1.295	1.242	1.431
559																																																																																					0.628	0.649	0.721	0.622	0.661	0.611	0.679	0.842	1.178	1.284	1.232	1.421
560																																																																																					0.620	0.640	0.712	0.614	0.653	0.603	0.670	0.833	1.168	1.274	1.223	1.412
561																																																																																					0.612	0.632	0.702	0.606	0.645	0.596	0.662	0.824	1.159	1.264	1.215	1.404
562																																																																																					0.604	0.624	0.694	0.599	0.637	0.589	0.655	0.816	1.151	1.257	1.209	1.398
563																																																																																					0.598	0.618	0.686	0.593	0.631	0.583	0.649	0.809	1.144	1.251	1.204	1.393
564																																																																																					0.590	0.610	0.677	0.585	0.622	0.576	0.641	0.801	1.135	1.244	1.198	1.387
565																																																																																					0.581	0.600	0.667	0.576	0.613	0.567	0.631	0.792	1.127	1.238	1.193	1.383
566																																																																																					0.573	0.592	0.658	0.569	0.605	0.560	0.623	0.784	1.119	1.233	1.190	1.380
567																																																																																					0.565	0.584	0.649	0.561	0.597	0.552	0.615	0.776	1.112	1.229	1.186	1.378
568																																																																																					0.558	0.576	0.641	0.554	0.589	0.546	0.607	0.768	1.106	1.226	1.185	1.377
569																																																																																					0.550	0.568	0.631	0.546	0.581	0.538	0.599	0.760	1.099	1.224	1.184	1.377
570																																																																																					0.542	0.560	0.622	0.538	0.573	0.530	0.591	0.753	1.093	1.222	1.183	1.377
571																																																																																					0.533	0.551	0.612	0.530	0.564	0.522	0.582	0.745	1.087	1.222	1.184	1.379
572																																																																																					0.526	0.543	0.603	0.522	0.555	0.514	0.573	0.737	1.082	1.222	1.186	1.382
573																																																																																					0.518	0.535	0.594	0.514	0.548	0.507	0.565	0.730	1.078	1.224	1.188	1.386
574																																																																																					0.511	0.527	0.586	0.507	0.540	0.500	0.557	0.723	1.075	1.226	1.191	1.390
575																																																																																					0.503	0.519	0.577	0.499	0.532	0.492	0.548	0.717	1.071	1.230	1.195	1.396
576																																																																																					0.497	0.513	0.569	0.493	0.525	0.486	0.541	0.711	1.069	1.234	1.200	1.401
577																																																																																					0.490	0.505	0.561	0.486	0.517	0.479	0.534	0.705	1.067	1.239	1.205	1.407
578																																																																																					0.483	0.497	0.552	0.479	0.509	0.472	0.525	0.699	1.066	1.245	1.212	1.415
579																																																																																					0.475	0.490	0.543	0.471	0.501	0.464	0.517	0.693	1.066	1.252	1.219	1.424
580																																																																																					0.468	0.482	0.534	0.464	0.493	0.457	0.509	0.687	1.066	1.261	1.227	1.433
581																																																																																					0.462	0.475	0.527	0.457	0.486	0.450	0.501	0.682	1.067	1.269	1.236	1.442
582																																																																																					0.455	0.468	0.519	0.450	0.479	0.444	0.494	0.677	1.069	1.278	1.244	1.451
583																																																																																					0.449	0.461	0.511	0.443	0.471	0.437	0.486	0.673	1.072	1.288	1.254	1.461
584																																																																																					0.442	0.454	0.503	0.436	0.464	0.430	0.479	0.669	1.076	1.299	1.263	1.472
585																																																																																					0.436	0.448	0.495	0.430	0.457	0.424	0.472	0.665	1.081	1.310	1.274	1.482
586																																																																																					0.430	0.441	0.488	0.423	0.450	0.417	0.464	0.661	1.086	1.322	1.284	1.492
587																																																																																					0.424	0.435	0.481	0.417	0.443	0.411	0.457	0.658	1.093	1.334	1.295	1.502
588																																																																																					0.419	0.430	0.474	0.412	0.438	0.406	0.451	0.656	1.100	1.345	1.304	1.511
589																																																																																					0.414	0.424	0.469	0.407	0.432	0.400	0.445	0.654	1.108	1.356	1.314	1.519
590																																																																																					0.409	0.419	0.462	0.401	0.426	0.395	0.439	0.652	1.116	1.368	1.323	1.526
591																																																																																					0.404	0.414	0.457	0.396	0.421	0.390	0.433	0.651	1.126	1.379	1.332	1.534
592																																																																																					0.400	0.409	0.452	0.392	0.416	0.386	0.428	0.651	1.135	1.389	1.340	1.540
593																																																																																					0.396	0.405	0.447	0.387	0.411	0.381	0.423	0.650	1.145	1.399	1.347	1.545
594																																																																																					0.392	0.400	0.441	0.383	0.406	0.377	0.418	0.651	1.157	1.410	1.355	1.549
595																																																																																					0.388	0.396	0.436	0.378	0.401	0.372	0.413	0.651	1.170	1.420	1.362	1.553
596																																																																																					0.384	0.392	0.431	0.374	0.397	0.368	0.408	0.652	1.182	1.428	1.367	1.555
597																																																																																					0.381	0.389	0.427	0.371	0.393	0.365	0.404	0.654	1.194	1.436	1.372	1.556
598																																																																																					0.378	0.385	0.424	0.368	0.390	0.361	0.400	0.656	1.208	1.443	1.375	1.556
599																																																																																					0.375	0.382	0.420	0.364	0.386	0.358	0.396	0.659	1.221	1.449	1.378	1.554
600																																																																																					0.372	0.379	0.416	0.361	0.382	0.354	0.392	0.662	1.236	1.454	1.380	1.551
601																																																																																					0.369	0.375	0.412	0.357	0.378	0.350	0.388	0.667	1.254	1.459	1.381	1.547
602																																																																																					0.367	0.372	0.408	0.354	0.375	0.347	0.385	0.671	1.271	1.462	1.380	1.540
603																																																																																					0.365	0.370	0.406	0.351	0.372	0.345	0.382	0.676	1.285	1.464	1.379	1.534
604																																																																																					0.363	0.368	0.403	0.349	0.369	0.343	0.379	0.681	1.300	1.465	1.376	1.526
605																																																																																					0.361	0.366	0.401	0.347	0.367	0.341	0.377	0.687	1.314	1.464	1.373	1.518
606																																																																																					0.360	0.364	0.399	0.345	0.365	0.338	0.374	0.693	1.328	1.463	1.368	1.507
607																																																																																					0.358	0.363	0.397	0.343	0.363	0.337	0.372	0.700	1.342	1.460	1.362	1.496
608																																																																																					0.357	0.361	0.395	0.341	0.361	0.334	0.370	0.708	1.359	1.455	1.353	1.481
609																																																																																					0.356	0.360	0.393	0.340	0.359	0.333	0.368	0.716	1.373	1.450	1.345	1.467
610																																																																																					0.355	0.359	0.392	0.339	0.358	0.332	0.366	0.724	1.386	1.445	1.337	1.453
611																																																																																					0.355	0.358	0.390	0.338	0.357	0.331	0.365	0.732	1.399	1.438	1.327	1.439
612																																																																																					0.354	0.357	0.389	0.337	0.356	0.330	0.364	0.743	1.412	1.429	1.316	1.421
613																																																																																					0.354	0.357	0.389	0.336	0.355	0.329	0.363	0.752	1.425	1.419	1.303	1.403
614																																																																																					0.354	0.356	0.388	0.335	0.354	0.328	0.362	0.764	1.438	1.407	1.288	1.384
615																																																																																					0.354	0.356	0.387	0.335	0.354	0.327	0.361	0.776	1.450	1.394	1.274	1.363
616																																																																																					0.355	0.356	0.387	0.335	0.353	0.327	0.361	0.789	1.461	1.380	1.258	1.342
617																																																																																					0.355	0.356	0.387	0.334	0.353	0.327	0.361	0.802	1.470	1.366	1.242	1.321
618																																																																																					0.356	0.357	0.387	0.335	0.353	0.327	0.361	0.815	1.479	1.350	1.225	1.300
619																																																																																					0.357	0.357	0.388	0.335	0.353	0.327	0.361	0.828	1.486	1.335	1.209	1.279
620																																																																																					0.358	0.358	0.388	0.335	0.354	0.328	0.361	0.844	1.493	1.314	1.188	1.253
621																																																																																					0.359	0.359	0.389	0.336	0.354	0.328	0.362	0.859	1.499	1.295	1.167	1.229
622																																																																																					0.361	0.361	0.390	0.337	0.355	0.329	0.363	0.875	1.504	1.276	1.148	1.205
623																																																																																					0.363	0.362	0.392	0.338	0.357	0.330	0.364	0.891	1.506	1.255	1.127	1.180
624																																																																																					0.365	0.364	0.393	0.339	0.358	0.331	0.365	0.908	1.508	1.234	1.107	1.157
625																																																																																					0.367	0.366	0.395	0.341	0.359	0.333	0.366	0.924	1.508	1.212	1.085	1.132
626																																																																																					0.369	0.368	0.397	0.342	0.361	0.334	0.368	0.942	1.508	1.190	1.064	1.108
627																																																																																					0.372	0.370	0.400	0.344	0.363	0.336	0.370	0.959	1.505	1.167	1.043	1.084
628																																																																																					0.375	0.372	0.402	0.346	0.365	0.338	0.372	0.976	1.502	1.145	1.022	1.062
629																																																																																					0.378	0.375	0.405	0.348	0.367	0.340	0.374	0.993	1.496	1.121	0.999	1.037
630																																																																																					0.381	0.378	0.408	0.350	0.369	0.342	0.377	1.013	1.489	1.097	0.977	1.012
631																																																																																					0.384	0.381	0.410	0.353	0.372	0.344	0.379	1.029	1.482	1.076	0.957	0.991
632																																																																																					0.388	0.384	0.414	0.355	0.375	0.347	0.382	1.048	1.472	1.051	0.934	0.966
633																																																																																					0.392	0.388	0.418	0.358	0.378	0.350	0.386	1.067	1.460	1.026	0.912	0.942
634																																																																																					0.396	0.392	0.422	0.362	0.381	0.353	0.389	1.085	1.448	1.002	0.890	0.919
635																																																																																					0.401	0.396	0.426	0.365	0.385	0.357	0.393	1.105	1.433	0.976	0.867	0.895
636																																																																																					0.406	0.400	0.430	0.369	0.389	0.360	0.397	1.123	1.418	0.952	0.845	0.873
637																																																																																					0.410	0.404	0.435	0.372	0.393	0.363	0.401	1.141	1.402	0.928	0.824	0.850
638																																																																																					0.416	0.409	0.440	0.377	0.397	0.368	0.405	1.160	1.383	0.903	0.802	0.827
639																																																																																					0.422	0.415	0.445	0.381	0.402	0.372	0.410	1.178	1.365	0.878	0.780	0.805
640																																																																																					0.428	0.420	0.451	0.386	0.406	0.377	0.415	1.196	1.344	0.855	0.758	0.783
641																																																																																					0.434	0.426	0.457	0.391	0.411	0.381	0.420	1.213	1.323	0.832	0.738	0.763
642																																																																																					0.441	0.432	0.463	0.396	0.417	0.386	0.426	1.231	1.300	0.807	0.717	0.740
643																																																																																					0.447	0.439	0.470	0.401	0.423	0.392	0.432	1.247	1.277	0.785	0.697	0.721
644																																																																																					0.455	0.445	0.477	0.407	0.428	0.397	0.438	1.262	1.253	0.763	0.678	0.701
645																																																																																					0.462	0.452	0.484	0.413	0.435	0.403	0.445	1.278	1.228	0.740	0.659	0.681
646																																																																																					0.470	0.459	0.492	0.419	0.442	0.409	0.451	1.293	1.203	0.720	0.640	0.663
647																																																																																					0.478	0.467	0.500	0.426	0.449	0.416	0.459	1.307	1.177	0.698	0.622	0.644
648																																																																																					0.487	0.475	0.508	0.433	0.456	0.423	0.466	1.320	1.151	0.678	0.604	0.626
649																																																																																					0.496	0.483	0.517	0.440	0.463	0.430	0.474	1.332	1.123	0.658	0.586	0.608
650																																																																																					0.505	0.491	0.526	0.447	0.471	0.437	0.482	1.343	1.099	0.639	0.570	0.592
651																																																																																					0.515	0.500	0.535	0.455	0.479	0.445	0.491	1.353	1.073	0.621	0.554	0.576
652																																																																																					0.524	0.509	0.544	0.463	0.487	0.452	0.499	1.362	1.048	0.604	0.540	0.562
653																																																																																					0.534	0.519	0.555	0.471	0.496	0.460	0.508	1.370	1.023	0.588	0.525	0.547
654																																																																																					0.544	0.528	0.565	0.479	0.505	0.468	0.517	1.377	0.998	0.571	0.511	0.532
655																																																																																					0.556	0.539	0.576	0.489	0.514	0.477	0.527	1.383	0.972	0.555	0.497	0.518
656																																																																																					0.567	0.550	0.587	0.498	0.524	0.486	0.538	1.388	0.946	0.539	0.483	0.505
657																																																																																					0.579	0.561	0.600	0.508	0.535	0.496	0.549	1.391	0.921	0.523	0.470	0.491
658																																																																																					0.592	0.573	0.612	0.518	0.546	0.506	0.559	1.394	0.896	0.509	0.458	0.479
659																																																																																					0.604	0.585	0.625	0.529	0.557	0.517	0.571	1.396	0.872	0.495	0.445	0.467
660																																																																																					0.616	0.596	0.637	0.539	0.567	0.526	0.582	1.396	0.851	0.483	0.435	0.457
661																																																																																					0.630	0.610	0.651	0.550	0.580	0.538	0.595	1.395	0.826	0.469	0.423	0.444
662																																																																																					0.644	0.623	0.665	0.562	0.592	0.549	0.607	1.393	0.804	0.457	0.413	0.434
663																																																																																					0.657	0.635	0.678	0.573	0.603	0.560	0.619	1.390	0.784	0.446	0.403	0.424
664																																																																																					0.671	0.649	0.693	0.586	0.616	0.572	0.632	1.386	0.763	0.435	0.393	0.415
665																																																																																					0.686	0.662	0.708	0.597	0.629	0.583	0.645	1.380	0.743	0.424	0.384	0.405
666																																																																																					0.700	0.676	0.722	0.610	0.641	0.595	0.658	1.375	0.723	0.414	0.376	0.397
667																																																																																					0.716	0.692	0.739	0.624	0.656	0.609	0.673	1.367	0.703	0.403	0.366	0.387
668																																																																																					0.733	0.708	0.757	0.637	0.671	0.622	0.689	1.358	0.683	0.393	0.358	0.379
669																																																																																					0.750	0.724	0.774	0.652	0.686	0.636	0.704	1.349	0.665	0.384	0.349	0.371
670																																																																																					0.766	0.739	0.790	0.666	0.701	0.649	0.718	1.339	0.647	0.375	0.341	0.363
671																																																																																					0.782	0.756	0.807	0.681	0.716	0.663	0.734	1.328	0.629	0.366	0.334	0.356
672																																																																																					0.799	0.772	0.825	0.695	0.731	0.677	0.749	1.317	0.614	0.358	0.327	0.349
673																																																																																					0.816	0.790	0.844	0.711	0.747	0.692	0.766	1.303	0.597	0.350	0.320	0.342
674																																																																																					0.835	0.808	0.863	0.727	0.764	0.708	0.783	1.290	0.581	0.342	0.313	0.335
675																																																																																					0.852	0.825	0.882	0.742	0.780	0.723	0.799	1.276	0.566	0.335	0.307	0.329
676																																																																																					0.871	0.844	0.901	0.759	0.798	0.739	0.817	1.261	0.550	0.327	0.301	0.322
677																																																																																					0.889	0.862	0.922	0.775	0.815	0.755	0.835	1.245	0.536	0.320	0.295	0.316
678																																																																																					0.907	0.880	0.941	0.791	0.832	0.770	0.851	1.230	0.524	0.314	0.289	0.311
679																																																																																					0.926	0.899	0.962	0.808	0.850	0.787	0.870	1.213	0.510	0.308	0.284	0.306
680																																																																																					0.946	0.918	0.983	0.826	0.869	0.804	0.888	1.196	0.496	0.301	0.279	0.300
681																																																																																					0.965	0.938	1.004	0.845	0.886	0.820	0.907	1.179	0.484	0.295	0.274	0.295
682																																																																																					0.984	0.957	1.025	0.862	0.905	0.837	0.925	1.162	0.472	0.290	0.269	0.291
683																																																																																					1.002	0.976	1.045	0.879	0.924	0.853	0.942	1.145	0.461	0.285	0.264	0.286
684																																																																																					1.021	0.995	1.066	0.896	0.942	0.870	0.961	1.127	0.451	0.280	0.260	0.282
685																																																																																					1.041	1.016	1.089	0.915	0.962	0.888	0.980	1.108	0.439	0.275	0.255	0.277
686																																																																																					1.062	1.038	1.112	0.935	0.982	0.906	1.000	1.088	0.428	0.270	0.251	0.273
687																																																																																					1.082	1.058	1.135	0.954	1.002	0.924	1.020	1.069	0.417	0.265	0.247	0.269
688																																																																																					1.101	1.079	1.157	0.973	1.022	0.942	1.039	1.050	0.407	0.260	0.243	0.265
689																																																																																					1.121	1.099	1.180	0.991	1.042	0.959	1.058	1.031	0.398	0.256	0.239	0.261
690																																																																																					1.139	1.119	1.201	1.009	1.060	0.976	1.076	1.013	0.389	0.252	0.236	0.258
691																																																																																					1.157	1.137	1.221	1.026	1.079	0.992	1.093	0.996	0.381	0.248	0.233	0.254
692																																																																																					1.175	1.157	1.243	1.044	1.097	1.009	1.111	0.978	0.372	0.245	0.229	0.251
693																																																																																					1.194	1.177	1.266	1.063	1.117	1.026	1.131	0.959	0.364	0.241	0.226	0.248
694																																																																																					1.211	1.196	1.286	1.081	1.135	1.043	1.148	0.941	0.356	0.237	0.223	0.245
695																																																																																					1.228	1.214	1.307	1.098	1.153	1.060	1.166	0.923	0.349	0.234	0.220	0.242
696																																																																																					1.246	1.234	1.328	1.116	1.172	1.076	1.183	0.905	0.341	0.230	0.217	0.239
697																																																																																					1.264	1.254	1.350	1.136	1.192	1.093	1.202	0.886	0.334	0.227	0.214	0.236
698																																																																																					1.279	1.271	1.369	1.151	1.208	1.107	1.217	0.870	0.328	0.224	0.212	0.233
699																																																																																					1.293	1.288	1.389	1.167	1.225	1.123	1.233	0.854	0.321	0.222	0.209	0.231
700																																																																																					1.307	1.303	1.406	1.182	1.241	1.136	1.248	0.840	0.316	0.219	0.207	0.229
701																																																																																					1.321	1.319	1.424	1.198	1.257	1.151	1.263	0.823	0.310	0.216	0.205	0.227
702																																																																																					1.335	1.336	1.442	1.213	1.273	1.164	1.278	0.807	0.304	0.214	0.203	0.224
703																																																																																					1.350	1.353	1.461	1.229	1.291	1.179	1.293	0.790	0.298	0.211	0.201	0.222
704																																																																																					1.362	1.367	1.477	1.243	1.305	1.192	1.306	0.775	0.293	0.209	0.199	0.220
705																																																																																					1.374	1.381	1.494	1.257	1.320	1.204	1.320	0.760	0.288	0.207	0.197	0.218
706																																																																																					1.384	1.395	1.510	1.270	1.334	1.216	1.332	0.746	0.283	0.205	0.195	0.216
707																																																																																					1.395	1.408	1.524	1.283	1.348	1.228	1.344	0.732	0.278	0.203	0.193	0.214
708																																																																																					1.405	1.421	1.539	1.295	1.361	1.239	1.355	0.718	0.274	0.201	0.191	0.212
709																																																																																					1.414	1.433	1.553	1.308	1.373	1.250	1.366	0.705	0.269	0.200	0.189	0.211
710																																																																																					1.422	1.444	1.565	1.318	1.385	1.259	1.376	0.692	0.265	0.198	0.188	0.209
711																																																																																					1.430	1.454	1.578	1.329	1.396	1.268	1.385	0.679	0.261	0.196	0.186	0.207
712																																																																																					1.437	1.464	1.589	1.338	1.406	1.277	1.394	0.667	0.258	0.194	0.185	0.206
713																																																																																					1.444	1.473	1.600	1.348	1.416	1.285	1.402	0.655	0.254	0.193	0.183	0.204
714																																																																																					1.449	1.481	1.610	1.357	1.425	1.293	1.410	0.643	0.250	0.191	0.182	0.203
715																																																																																					1.454	1.489	1.619	1.365	1.434	1.300	1.417	0.631	0.246	0.190	0.181	0.202
716																																																																																					1.458	1.496	1.627	1.372	1.442	1.306	1.423	0.620	0.243	0.188	0.179	0.201
717																																																																																					1.461	1.502	1.634	1.379	1.448	1.311	1.428	0.609	0.240	0.187	0.178	0.199
718																																																																																					1.463	1.506	1.641	1.385	1.454	1.316	1.433	0.599	0.237	0.185	0.177	0.198
719																																																																																					1.465	1.511	1.647	1.391	1.460	1.320	1.437	0.588	0.234	0.184	0.176	0.197
720																																																																																					1.466	1.515	1.652	1.395	1.465	1.323	1.440	0.579	0.231	0.182	0.174	0.196
721																																																																																					1.466	1.518	1.656	1.399	1.469	1.326	1.442	0.569	0.228	0.181	0.173	0.195
722																																																																																					1.465	1.520	1.660	1.402	1.473	1.329	1.444	0.559	0.225	0.180	0.172	0.193
723																																																																																					1.464	1.522	1.662	1.405	1.475	1.330	1.445	0.549	0.222	0.179	0.171	0.192
724																																																																																					1.462	1.522	1.664	1.407	1.477	1.331	1.446	0.540	0.220	0.177	0.170	0.191
725																																																																																					1.459	1.522	1.665	1.408	1.479	1.331	1.445	0.531	0.217	0.176	0.169	0.191
726																																																																																					1.456	1.521	1.665	1.408	1.479	1.331	1.444	0.523	0.215	0.175	0.169	0.190
727																																																																																					1.452	1.520	1.665	1.408	1.479	1.330	1.442	0.514	0.212	0.174	0.168	0.189
728																																																																																					1.447	1.517	1.663	1.407	1.478	1.328	1.440	0.505	0.210	0.173	0.167	0.188
729																																																																																					1.441	1.514	1.660	1.406	1.476	1.326	1.437	0.497	0.208	0.173	0.166	0.188
730																																																																																					1.435	1.510	1.658	1.404	1.474	1.323	1.433	0.490	0.206	0.172	0.166	0.187
731																																																																																					1.429	1.506	1.654	1.401	1.472	1.320	1.429	0.482	0.204	0.171	0.165	0.186
732																																																																																					1.422	1.502	1.650	1.398	1.468	1.316	1.424	0.475	0.203	0.171	0.164	0.186
733																																																																																					1.414	1.496	1.644	1.394	1.464	1.311	1.419	0.468	0.201	0.170	0.164	0.186
734																																																																																					1.406	1.490	1.639	1.389	1.459	1.307	1.413	0.462	0.199	0.169	0.163	0.185
735																																																																																					1.397	1.483	1.632	1.384	1.454	1.301	1.406	0.455	0.197	0.169	0.163	0.185
736																																																																																					1.388	1.475	1.624	1.377	1.448	1.294	1.399	0.448	0.196	0.168	0.162	0.184
737																																																																																					1.378	1.467	1.617	1.371	1.441	1.288	1.391	0.441	0.194	0.167	0.162	0.184
738																																																																																					1.367	1.458	1.607	1.364	1.433	1.280	1.382	0.435	0.192	0.167	0.161	0.183
739																																																																																					1.356	1.448	1.598	1.356	1.425	1.272	1.373	0.429	0.191	0.166	0.161	0.183
740																																																																																					1.345	1.439	1.588	1.348	1.417	1.264	1.363	0.422	0.189	0.165	0.160	0.182
741																																																																																					1.333	1.429	1.577	1.340	1.407	1.255	1.354	0.417	0.187	0.165	0.159	0.181
742																																																																																					1.321	1.417	1.567	1.330	1.398	1.246	1.342	0.411	0.186	0.164	0.159	0.181
743																																																																																					1.309	1.406	1.555	1.321	1.388	1.237	1.332	0.405	0.184	0.163	0.158	0.180
744																																																																																					1.296	1.394	1.542	1.310	1.377	1.226	1.321	0.399	0.183	0.163	0.158	0.180
745																																																																																					1.282	1.382	1.529	1.300	1.367	1.216	1.309	0.394	0.181	0.162	0.157	0.179
746																																																																																					1.269	1.369	1.516	1.289	1.355	1.205	1.297	0.388	0.180	0.161	0.156	0.178
747																																																																																					1.255	1.356	1.502	1.277	1.343	1.194	1.284	0.383	0.178	0.160	0.156	0.178
748																																																																																					1.242	1.343	1.488	1.266	1.331	1.183	1.272	0.378	0.177	0.160	0.155	0.178
749																																																																																					1.227	1.329	1.473	1.253	1.318	1.170	1.258	0.372	0.176	0.159	0.155	0.177
750																																																																																					1.213	1.315	1.459	1.242	1.305	1.159	1.245	0.368	0.174	0.159	0.154	0.177
751																																																																																					1.199	1.301	1.444	1.229	1.293	1.147	1.232	0.363	0.173	0.158	0.154	0.176
752																																																																																					1.185	1.288	1.430	1.217	1.280	1.135	1.219	0.359	0.172	0.157	0.153	0.176
753																																																																																					1.171	1.275	1.415	1.205	1.267	1.124	1.206	0.355	0.171	0.157	0.153	0.175
754																																																																																					1.157	1.260	1.400	1.192	1.254	1.111	1.193	0.350	0.170	0.157	0.152	0.175
755																																																																																					1.143	1.246	1.385	1.179	1.240	1.099	1.179	0.346	0.169	0.156	0.152	0.174
756																																																																																					1.128	1.230	1.369	1.166	1.227	1.086	1.165	0.342	0.168	0.155	0.152	0.174
757																																																																																					1.113	1.216	1.353	1.153	1.212	1.073	1.151	0.338	0.167	0.155	0.151	0.174
758																																																																																					1.096	1.198	1.333	1.137	1.196	1.058	1.134	0.333	0.165	0.154	0.151	0.173
759																																																																																					1.082	1.184	1.318	1.124	1.182	1.045	1.120	0.329	0.164	0.154	0.150	0.173
760																																																																																					1.066	1.168	1.301	1.109	1.167	1.032	1.105	0.325	0.163	0.153	0.150	0.172
761																																																																																					1.049	1.151	1.283	1.094	1.150	1.017	1.089	0.321	0.163	0.153	0.149	0.172
762																																																																																					1.033	1.134	1.264	1.079	1.134	1.002	1.073	0.317	0.162	0.152	0.149	0.172
763																																																																																					1.020	1.120	1.248	1.066	1.121	0.990	1.059	0.314	0.161	0.152	0.149	0.172
764																																																																																					1.007	1.106	1.234	1.054	1.108	0.978	1.047	0.311	0.160	0.152	0.148	0.171
765																																																																																					0.996	1.095	1.222	1.043	1.097	0.969	1.036	0.308	0.159	0.151	0.148	0.171
766																																																																																					0.983	1.081	1.206	1.030	1.083	0.956	1.022	0.305	0.158	0.151	0.148	0.170
767																																																																																					0.967	1.066	1.189	1.015	1.068	0.942	1.008	0.302	0.157	0.150	0.147	0.170
768																																																																																					0.952	1.049	1.171	1.000	1.052	0.928	0.992	0.298	0.157	0.150	0.147	0.170
769																																																																																					0.938	1.033	1.154	0.986	1.037	0.914	0.978	0.295	0.156	0.150	0.147	0.170
770																																																																																					0.923	1.017	1.136	0.972	1.021	0.901	0.963	0.291	0.155	0.149	0.146	0.169
771																																																																																					0.908	1.003	1.120	0.958	1.007	0.887	0.949	0.288	0.154	0.149	0.146	0.169
772																																																																																					0.895	0.989	1.105	0.944	0.993	0.875	0.935	0.285	0.153	0.148	0.145	0.168
773																																																																																					0.881	0.973	1.087	0.930	0.978	0.861	0.920	0.283	0.153	0.148	0.145	0.168
774																																																																																					0.867	0.958	1.071	0.916	0.963	0.849	0.906	0.280	0.152	0.147	0.145	0.168
775																																																																																					0.854	0.944	1.055	0.902	0.950	0.836	0.892	0.277	0.151	0.147	0.144	0.167
776																																																																																					0.840	0.929	1.039	0.889	0.935	0.823	0.879	0.274	0.150	0.147	0.144	0.167
777																																																																																					0.827	0.915	1.023	0.876	0.921	0.811	0.865	0.271	0.150	0.146	0.144	0.167
778																																																																																					0.813	0.901	1.007	0.862	0.906	0.798	0.852	0.268	0.149	0.146	0.143	0.166
779																																																																																					0.800	0.886	0.990	0.848	0.892	0.785	0.838	0.266	0.148	0.145	0.143	0.166
780																																																																																					0.786	0.871	0.975	0.835	0.878	0.772	0.824	0.263	0.148	0.145	0.142	0.166
781																																																																																					0.773	0.857	0.959	0.821	0.864	0.760	0.810	0.260	0.147	0.145	0.142	0.165
782																																																																																					0.761	0.844	0.944	0.809	0.851	0.748	0.797	0.258	0.147	0.144	0.142	0.165
783																																																																																					0.749	0.831	0.929	0.796	0.837	0.736	0.785	0.255	0.146	0.144	0.142	0.165
784																																																																																					0.736	0.816	0.913	0.783	0.823	0.724	0.771	0.253	0.146	0.143	0.141	0.164
785																																																																																					0.723	0.802	0.897	0.770	0.809	0.712	0.759	0.250	0.145	0.143	0.141	0.164
786																																																																																					0.710	0.788	0.881	0.756	0.795	0.699	0.745	0.248	0.144	0.142	0.141	0.163
787																																																																																					0.698	0.774	0.866	0.743	0.781	0.687	0.732	0.245	0.144	0.142	0.140	0.163
788																																																																																					0.685	0.761	0.852	0.731	0.769	0.676	0.719	0.243	0.143	0.142	0.140	0.163
789																																																																																					0.675	0.749	0.838	0.719	0.756	0.665	0.708	0.241	0.142	0.141	0.140	0.162
790																																																																																					0.664	0.737	0.825	0.708	0.745	0.655	0.697	0.239	0.142	0.141	0.139	0.162
791																																																																																					0.653	0.725	0.811	0.697	0.733	0.644	0.686	0.236	0.141	0.141	0.139	0.162
792																																																																																					0.640	0.711	0.795	0.684	0.718	0.632	0.672	0.234	0.141	0.140	0.139	0.161
793																																																																																					0.629	0.699	0.783	0.672	0.707	0.622	0.661	0.232	0.140	0.140	0.138	0.161
794																																																																																					0.619	0.687	0.769	0.661	0.695	0.611	0.649	0.230	0.140	0.139	0.138	0.161
795																																																																																					0.607	0.675	0.755	0.649	0.682	0.600	0.638	0.227	0.140	0.139	0.138	0.160
796																																																																																					0.598	0.664	0.743	0.639	0.671	0.590	0.628	0.225	0.139	0.139	0.137	0.160
797																																																																																					0.588	0.652	0.730	0.628	0.660	0.580	0.617	0.223	0.139	0.138	0.137	0.160
798																																																																																					0.577	0.641	0.718	0.617	0.648	0.571	0.607	0.221	0.138	0.138	0.137	0.159
799																																																																																					0.567	0.630	0.705	0.607	0.637	0.560	0.596	0.219	0.138	0.137	0.136	0.159
800																																																																																					0.557	0.618	0.692	0.596	0.626	0.551	0.586	0.217	0.137	0.137	0.136	0.159
801																																																																																					0.547	0.607	0.679	0.585	0.614	0.540	0.575	0.215	0.137	0.137	0.136	0.158
802																																																																																					0.538	0.597	0.668	0.576	0.604	0.532	0.565	0.213	0.136	0.136	0.135	0.158
803																																																																																					0.528	0.587	0.657	0.566	0.594	0.523	0.556	0.211	0.136	0.136	0.135	0.158
804																																																																																					0.519	0.576	0.644	0.555	0.583	0.513	0.545	0.209	0.135	0.135	0.135	0.157
805																																																																																					0.510	0.566	0.633	0.546	0.573	0.504	0.536	0.208	0.135	0.135	0.135	0.157
806																																																																																					0.502	0.556	0.623	0.537	0.564	0.496	0.527	0.206	0.135	0.135	0.134	0.157
807																																																																																					0.493	0.546	0.611	0.528	0.554	0.488	0.518	0.204	0.135	0.134	0.134	0.156
808																																																																																					0.484	0.538	0.602	0.519	0.545	0.479	0.510	0.202	0.134	0.134	0.134	0.156
809																																																																																					0.476	0.528	0.591	0.510	0.535	0.472	0.501	0.201	0.134	0.134	0.133	0.156
810																																																																																					0.469	0.520	0.581	0.501	0.526	0.464	0.493	0.199	0.133	0.133	0.133	0.155
811																																																																																					0.460	0.510	0.570	0.493	0.517	0.456	0.484	0.197	0.133	0.133	0.133	0.155
812																																																																																					0.452	0.501	0.560	0.484	0.507	0.448	0.476	0.196	0.133	0.133	0.133	0.155
813																																																																																					0.445	0.492	0.550	0.476	0.499	0.440	0.467	0.194	0.133	0.132	0.132	0.154
814																																																																																					0.436	0.484	0.540	0.467	0.490	0.432	0.459	0.192	0.132	0.132	0.132	0.154
815																																																																																					0.429	0.475	0.531	0.459	0.481	0.425	0.452	0.191	0.132	0.132	0.132	0.154
816																																																																																					0.420	0.465	0.520	0.450	0.471	0.416	0.442	0.189	0.132	0.131	0.131	0.153
817																																																																																					0.414	0.458	0.512	0.443	0.464	0.410	0.435	0.187	0.132	0.131	0.131	0.153
818																																																																																					0.406	0.449	0.502	0.434	0.455	0.402	0.427	0.186	0.131	0.131	0.131	0.153
819																																																																																					0.398	0.441	0.492	0.426	0.447	0.395	0.419	0.184	0.131	0.131	0.131	0.153
820																																																																																					0.390	0.430	0.481	0.416	0.437	0.386	0.410	0.182	0.131	0.131	0.131	0.153
821																																																																																					0.381	0.421	0.470	0.407	0.428	0.378	0.401	0.180	0.131	0.131	0.130	0.152
822																																																																																					0.376	0.415	0.464	0.402	0.422	0.373	0.396	0.179	0.131	0.130	0.130	0.152
823																																																																																					0.373	0.411	0.459	0.398	0.417	0.369	0.392	0.178	0.131	0.129	0.130	0.152
824																																																																																					0.369	0.408	0.455	0.395	0.413	0.366	0.389	0.178	0.131	0.129	0.130	0.152
825																																																																																					0.365	0.403	0.449	0.390	0.408	0.362	0.385	0.177	0.130	0.129	0.130	0.151
826																																																																																					0.357	0.395	0.439	0.382	0.400	0.354	0.376	0.175	0.131	0.129	0.130	0.151
827																																																																																					0.350	0.386	0.430	0.375	0.392	0.347	0.369	0.174	0.131	0.129	0.130	0.151
828																																																																																					0.346	0.381	0.424	0.369	0.386	0.342	0.363	0.173	0.131	0.129	0.130	0.151
829																																																																																					0.342	0.377	0.419	0.365	0.381	0.339	0.360	0.173	0.131	0.129	0.130	0.151
830																																																																																					0.337	0.372	0.413	0.360	0.376	0.334	0.355	0.172	0.131	0.129	0.130	0.151
831																																																																																					0.331	0.364	0.405	0.353	0.369	0.328	0.348	0.171	0.131	0.129	0.129	0.151
832																																																																																					0.323	0.355	0.395	0.344	0.360	0.320	0.340	0.169	0.132	0.129	0.130	0.151
833																																																																																					0.317	0.349	0.388	0.338	0.354	0.314	0.333	0.168	0.132	0.129	0.129	0.151
834																																																																																					0.314	0.344	0.383	0.334	0.349	0.310	0.330	0.167	0.132	0.129	0.129	0.151
835																																																																																					0.309	0.340	0.377	0.330	0.344	0.306	0.325	0.166	0.131	0.128	0.129	0.150
836																																																																																					0.306	0.336	0.373	0.326	0.340	0.303	0.322	0.165	0.131	0.128	0.129	0.150
837																																																																																					0.301	0.331	0.367	0.321	0.334	0.298	0.317	0.164	0.131	0.127	0.129	0.150
838																																																																																					0.296	0.324	0.360	0.315	0.328	0.293	0.311	0.163	0.131	0.127	0.128	0.149
839																																																																																					0.290	0.318	0.353	0.309	0.322	0.287	0.305	0.161	0.131	0.127	0.128	0.149
840																																																																																					0.285	0.312	0.347	0.304	0.317	0.282	0.300	0.160	0.130	0.126	0.128	0.148
841																																																																																					0.281	0.308	0.342	0.300	0.312	0.278	0.296	0.159	0.130	0.126	0.127	0.148
842																																																																																					0.277	0.304	0.337	0.295	0.307	0.275	0.292	0.158	0.130	0.125	0.127	0.148
843																																																																																					0.274	0.299	0.332	0.291	0.303	0.271	0.288	0.156	0.130	0.125	0.126	0.147
844																																																																																					0.269	0.294	0.325	0.286	0.297	0.266	0.282	0.155	0.130	0.125	0.126	0.147
845																																																																																					0.264	0.289	0.320	0.281	0.292	0.262	0.278	0.154	0.130	0.124	0.126	0.146
846																																																																																					0.260	0.284	0.315	0.277	0.288	0.258	0.274	0.153	0.129	0.124	0.125	0.146
847																																																																																					0.257	0.280	0.310	0.273	0.284	0.254	0.270	0.151	0.129	0.124	0.125	0.145
848																																																																																					0.254	0.276	0.305	0.269	0.280	0.251	0.266	0.151	0.129	0.123	0.124	0.145
849																																																																																					0.249	0.272	0.300	0.265	0.275	0.247	0.262	0.149	0.129	0.123	0.124	0.144
850																																																																																					0.246	0.268	0.296	0.261	0.271	0.243	0.258	0.149	0.128	0.122	0.124	0.144
851																																																																																					0.243	0.264	0.292	0.257	0.267	0.240	0.255	0.147	0.128	0.122	0.123	0.144
852																																																																																					0.239	0.260	0.286	0.253	0.263	0.236	0.251	0.146	0.128	0.121	0.123	0.143
853																																																																																					0.235	0.256	0.282	0.250	0.259	0.233	0.247	0.145	0.128	0.121	0.122	0.142
854																																																																																					0.232	0.252	0.278	0.246	0.255	0.230	0.244	0.144	0.128	0.121	0.122	0.142
855																																																																																					0.229	0.248	0.275	0.243	0.252	0.227	0.241	0.143	0.128	0.120	0.122	0.141
856																																																																																					0.226	0.245	0.270	0.239	0.248	0.224	0.237	0.142	0.127	0.120	0.121	0.141
857																																																																																					0.223	0.241	0.266	0.236	0.244	0.221	0.234	0.141	0.127	0.120	0.121	0.141
858																																																																																					0.220	0.238	0.262	0.233	0.241	0.217	0.231	0.140	0.127	0.119	0.120	0.140
859																																																																																					0.217	0.235	0.259	0.229	0.237	0.215	0.228	0.139	0.127	0.119	0.120	0.140
860																																																																																					0.214	0.232	0.255	0.227	0.234	0.212	0.225	0.138	0.127	0.119	0.120	0.139
861																																																																																					0.212	0.229	0.252	0.224	0.232	0.210	0.222	0.138	0.126	0.118	0.119	0.139
862																																																																																					0.209	0.226	0.249	0.221	0.229	0.207	0.220	0.137	0.126	0.118	0.119	0.138
863																																																																																					0.207	0.223	0.245	0.219	0.226	0.204	0.217	0.136	0.126	0.118	0.119	0.138
864																																																																																					0.204	0.220	0.242	0.216	0.223	0.202	0.214	0.135	0.126	0.117	0.119	0.138
865																																																																																					0.202	0.217	0.239	0.213	0.220	0.200	0.212	0.134	0.126	0.117	0.118	0.137
866																																																																																					0.199	0.215	0.236	0.211	0.217	0.197	0.209	0.134	0.126	0.117	0.118	0.137
867																																																																																					0.198	0.212	0.233	0.209	0.215	0.195	0.207	0.133	0.126	0.117	0.118	0.137
868																																																																																					0.195	0.210	0.230	0.206	0.212	0.193	0.205	0.132	0.126	0.117	0.118	0.137
869																																																																																					0.193	0.207	0.228	0.204	0.210	0.191	0.203	0.132	0.126	0.117	0.117	0.136
870																																																																																					0.192	0.205	0.225	0.202	0.207	0.190	0.201	0.131	0.126	0.117	0.117	0.136
871																																																																																					0.190	0.203	0.223	0.200	0.205	0.188	0.199	0.131	0.126	0.117	0.117	0.136
872																																																																																					0.188	0.201	0.221	0.198	0.203	0.186	0.197	0.130	0.126	0.117	0.117	0.136
873																																																																																					0.186	0.199	0.218	0.196	0.201	0.184	0.195	0.129	0.126	0.117	0.117	0.135
874																																																																																					0.184	0.197	0.216	0.194	0.199	0.182	0.194	0.129	0.126	0.116	0.117	0.135
875																																																																																					0.182	0.194	0.214	0.192	0.197	0.181	0.191	0.128	0.126	0.116	0.116	0.135
876																																																																																					0.180	0.192	0.211	0.190	0.194	0.179	0.189	0.127	0.126	0.116	0.116	0.134
877																																																																																					0.178	0.190	0.208	0.187	0.192	0.177	0.187	0.127	0.126	0.116	0.116	0.134
878																																																																																					0.176	0.187	0.205	0.184	0.189	0.174	0.184	0.126	0.125	0.115	0.115	0.133
879																																																																																					0.173	0.183	0.202	0.181	0.187	0.171	0.181	0.124	0.125	0.115	0.114	0.132
880																																																																																					0.170	0.181	0.199	0.179	0.184	0.169	0.178	0.123	0.124	0.114	0.113	0.131
881																																																																																					0.169	0.180	0.197	0.178	0.182	0.168	0.177	0.122	0.123	0.113	0.113	0.130
882																																																																																					0.168	0.179	0.196	0.177	0.181	0.167	0.176	0.122	0.123	0.112	0.112	0.130
883																																																																																					0.168	0.178	0.195	0.176	0.179	0.166	0.176	0.121	0.122	0.111	0.112	0.129
884																																																																																					0.166	0.177	0.193	0.175	0.178	0.165	0.175	0.121	0.122	0.111	0.112	0.129
885																																																																																					0.165	0.176	0.191	0.173	0.176	0.163	0.173	0.120	0.121	0.110	0.112	0.128
886																																																																																					0.162	0.173	0.188	0.170	0.173	0.160	0.171	0.119	0.121	0.110	0.111	0.127
887																																																																																					0.160	0.171	0.186	0.168	0.172	0.159	0.168	0.118	0.120	0.109	0.110	0.126
888																																																																																					0.159	0.169	0.184	0.167	0.170	0.157	0.167	0.118	0.120	0.109	0.110	0.126
889																																																																																					0.157	0.167	0.182	0.165	0.168	0.155	0.165	0.117	0.120	0.108	0.109	0.125
890																																																																																					0.155	0.165	0.180	0.163	0.167	0.154	0.163	0.116	0.119	0.108	0.109	0.124
891																																																																																					0.154	0.164	0.178	0.162	0.165	0.152	0.162	0.116	0.119	0.108	0.108	0.124
892																																																																																					0.152	0.161	0.176	0.160	0.163	0.151	0.160	0.115	0.119	0.107	0.108	0.123
893																																																																																					0.151	0.160	0.174	0.158	0.162	0.149	0.158	0.114	0.118	0.107	0.107	0.123
894																																																																																					0.150	0.159	0.173	0.157	0.160	0.148	0.157	0.114	0.118	0.107	0.107	0.122
895																																																																																					0.149	0.158	0.172	0.156	0.159	0.147	0.156	0.113	0.118	0.106	0.107	0.122
896																																																																																					0.148	0.157	0.171	0.155	0.158	0.146	0.155	0.113	0.118	0.106	0.107	0.122
897																																																																																					0.147	0.156	0.169	0.154	0.157	0.146	0.155	0.113	0.117	0.105	0.106	0.121
898																																																																																					0.147	0.155	0.168	0.153	0.155	0.145	0.154	0.112	0.117	0.105	0.106	0.121
899																																																																																					0.145	0.154	0.167	0.152	0.154	0.143	0.152	0.112	0.117	0.105	0.106	0.120
900																																																																																					0.144	0.152	0.165	0.150	0.153	0.142	0.151	0.111	0.117	0.105	0.105	0.120
901																																																																																					0.143	0.151	0.164	0.149	0.152	0.141	0.149	0.111	0.117	0.105	0.105	0.120
902																																																																																					0.141	0.149	0.162	0.148	0.151	0.140	0.148	0.110	0.117	0.105	0.105	0.119
903																																																																																					0.140	0.148	0.161	0.147	0.150	0.139	0.147	0.109	0.116	0.104	0.104	0.119
904																																																																																					0.140	0.147	0.160	0.146	0.149	0.138	0.146	0.109	0.116	0.104	0.104	0.118
905																																																																																					0.139	0.147	0.159	0.146	0.148	0.138	0.146	0.109	0.116	0.103	0.104	0.118
906																																																																																					0.139	0.147	0.159	0.145	0.147	0.137	0.146	0.109	0.116	0.103	0.104	0.118
907																																																																																					0.139	0.146	0.158	0.145	0.146	0.137	0.145	0.109	0.116	0.103	0.104	0.118
908																																																																																					0.138	0.145	0.157	0.143	0.145	0.136	0.144	0.109	0.116	0.103	0.104	0.117
909																																																																																					0.137	0.144	0.156	0.143	0.144	0.135	0.143	0.108	0.115	0.103	0.103	0.117
910																																																																																					0.136	0.143	0.155	0.142	0.144	0.134	0.142	0.108	0.116	0.103	0.103	0.117
911																																																																																					0.136	0.142	0.154	0.141	0.143	0.134	0.142	0.108	0.116	0.103	0.103	0.117
912																																																																																					0.135	0.141	0.153	0.141	0.143	0.133	0.141	0.108	0.116	0.104	0.104	0.117
913																																																																																					0.134	0.141	0.153	0.140	0.142	0.133	0.140	0.108	0.116	0.104	0.104	0.117
914																																																																																					0.134	0.140	0.152	0.139	0.142	0.132	0.139	0.108	0.116	0.104	0.103	0.117
915																																																																																					0.134	0.140	0.152	0.140	0.141	0.132	0.139	0.108	0.116	0.104	0.103	0.117
916																																																																																					0.133	0.140	0.151	0.139	0.141	0.132	0.139	0.108	0.116	0.104	0.103	0.117
917																																																																																					0.134	0.140	0.151	0.139	0.140	0.132	0.140	0.108	0.116	0.104	0.104	0.117
918																																																																																					0.134	0.140	0.151	0.139	0.140	0.132	0.140	0.108	0.116	0.104	0.104	0.117
919																																																																																					0.134	0.140	0.151	0.139	0.140	0.132	0.140	0.109	0.117	0.104	0.104	0.118
920																																																																																					0.134	0.140	0.151	0.139	0.140	0.132	0.140	0.109	0.117	0.105	0.105	0.118
921																																																																																					0.134	0.140	0.151	0.139	0.140	0.132	0.140	0.110	0.118	0.106	0.105	0.118
922																																																																																					0.134	0.140	0.151	0.139	0.140	0.132	0.140	0.110	0.118	0.106	0.106	0.119
923																																																																																					0.135	0.141	0.152	0.139	0.140	0.132	0.140	0.111	0.119	0.107	0.107	0.120
924																																																																																					0.135	0.141	0.152	0.140	0.141	0.133	0.141	0.112	0.120	0.108	0.107	0.121
925																																																																																					0.136	0.141	0.153	0.140	0.141	0.133	0.141	0.113	0.121	0.109	0.108	0.122
926																																																																																					0.137	0.142	0.153	0.141	0.142	0.134	0.142	0.114	0.122	0.110	0.109	0.123
927																																																																																					0.137	0.143	0.154	0.141	0.143	0.134	0.142	0.115	0.123	0.111	0.110	0.124
928																																																																																					0.138	0.143	0.155	0.142	0.144	0.135	0.143	0.116	0.124	0.112	0.111	0.125
929																																																																																					0.139	0.144	0.156	0.143	0.145	0.136	0.144	0.117	0.125	0.113	0.112	0.126
930																																																																																					0.140	0.145	0.157	0.144	0.146	0.137	0.145	0.119	0.127	0.115	0.113	0.127
931																																																																																					0.141	0.147	0.158	0.145	0.147	0.138	0.146	0.120	0.128	0.116	0.114	0.129
932																																																																																					0.143	0.148	0.160	0.146	0.148	0.139	0.148	0.122	0.129	0.117	0.116	0.130
933																																																																																					0.144	0.149	0.161	0.147	0.150	0.140	0.149	0.123	0.131	0.119	0.117	0.132
934																																																																																					0.145	0.151	0.163	0.149	0.151	0.141	0.150	0.125	0.133	0.121	0.119	0.134
935																																																																																					0.147	0.152	0.165	0.150	0.153	0.143	0.152	0.127	0.135	0.123	0.121	0.136
936																																																																																					0.149	0.154	0.167	0.152	0.155	0.144	0.154	0.129	0.136	0.124	0.122	0.137
937																																																																																					0.150	0.155	0.168	0.153	0.156	0.146	0.155	0.131	0.138	0.126	0.124	0.139
938																																																																																					0.152	0.157	0.170	0.155	0.158	0.147	0.157	0.132	0.140	0.128	0.125	0.141
939																																																																																					0.153	0.159	0.171	0.156	0.159	0.148	0.159	0.134	0.141	0.129	0.127	0.142
940																																																																																					0.155	0.161	0.173	0.158	0.161	0.150	0.161	0.136	0.143	0.131	0.129	0.144
941																																																																																					0.158	0.163	0.176	0.160	0.163	0.152	0.163	0.138	0.145	0.133	0.131	0.147
942																																																																																					0.160	0.165	0.179	0.162	0.166	0.154	0.165	0.141	0.148	0.136	0.133	0.150
943																																																																																					0.163	0.168	0.181	0.165	0.168	0.157	0.168	0.144	0.150	0.139	0.136	0.152
944																																																																																					0.166	0.171	0.185	0.167	0.171	0.159	0.170	0.147	0.153	0.141	0.139	0.155
945																																																																																					0.168	0.173	0.188	0.170	0.173	0.162	0.173	0.150	0.156	0.144	0.141	0.158
946																																																																																					0.172	0.177	0.192	0.173	0.177	0.165	0.177	0.154	0.160	0.147	0.144	0.162
947																																																																																					0.175	0.180	0.195	0.176	0.180	0.168	0.180	0.157	0.163	0.151	0.147	0.166
948																																																																																					0.180	0.185	0.200	0.180	0.185	0.172	0.184	0.162	0.167	0.155	0.151	0.170
949																																																																																					0.184	0.190	0.205	0.184	0.189	0.176	0.189	0.166	0.172	0.159	0.155	0.175
950																																																																																					0.189	0.194	0.210	0.189	0.194	0.180	0.193	0.171	0.176	0.164	0.160	0.179
951																																																																																					0.193	0.199	0.214	0.192	0.198	0.184	0.198	0.175	0.180	0.168	0.163	0.183
952																																																																																					0.197	0.203	0.219	0.196	0.202	0.187	0.202	0.179	0.184	0.171	0.167	0.188
953																																																																																					0.202	0.208	0.224	0.201	0.207	0.192	0.207	0.184	0.189	0.176	0.172	0.193
954																																																																																					0.208	0.213	0.231	0.206	0.213	0.197	0.212	0.190	0.194	0.181	0.177	0.198
955																																																																																					0.213	0.218	0.237	0.211	0.218	0.202	0.217	0.196	0.200	0.187	0.181	0.204
956																																																																																					0.218	0.223	0.242	0.216	0.223	0.206	0.222	0.200	0.204	0.191	0.186	0.209
957																																																																																					0.222	0.228	0.247	0.220	0.228	0.210	0.227	0.205	0.209	0.195	0.190	0.214
958																																																																																					0.226	0.232	0.251	0.224	0.231	0.213	0.230	0.209	0.213	0.199	0.193	0.218
959																																																																																					0.229	0.235	0.255	0.226	0.234	0.216	0.233	0.212	0.215	0.202	0.196	0.221
960																																																																																					0.231	0.237	0.257	0.229	0.237	0.219	0.235	0.215	0.218	0.205	0.199	0.223
961																																																																																					0.233	0.239	0.259	0.230	0.239	0.220	0.237	0.217	0.220	0.206	0.200	0.225
962																																																																																					0.235	0.241	0.261	0.232	0.240	0.222	0.239	0.219	0.222	0.208	0.202	0.227
963																																																																																					0.236	0.242	0.263	0.233	0.242	0.223	0.240	0.220	0.223	0.209	0.203	0.228
964																																																																																					0.237	0.243	0.264	0.234	0.243	0.223	0.241	0.221	0.224	0.210	0.204	0.229
965																																																																																					0.238	0.243	0.264	0.234	0.243	0.224	0.242	0.222	0.224	0.211	0.204	0.230
966																																																																																					0.238	0.244	0.265	0.235	0.244	0.225	0.242	0.222	0.225	0.212	0.205	0.231
967																																																																																					0.238	0.244	0.265	0.235	0.244	0.225	0.242	0.223	0.225	0.212	0.205	0.231
968																																																																																					0.239	0.244	0.265	0.235	0.244	0.225	0.243	0.223	0.225	0.212	0.206	0.232
969																																																																																					0.239	0.244	0.265	0.235	0.244	0.225	0.243	0.223	0.226	0.213	0.206	0.232
970																																																																																					0.239	0.244	0.265	0.235	0.244	0.225	0.243	0.224	0.226	0.213	0.206	0.232
971																																																																																					0.239	0.244	0.265	0.235	0.244	0.225	0.243	0.224	0.226	0.213	0.206	0.232
972																																																																																					0.239	0.244	0.266	0.235	0.244	0.225	0.243	0.224	0.226	0.213	0.206	0.232
973																																																																																					0.239	0.244	0.265	0.235	0.244	0.225	0.243	0.224	0.226	0.213	0.206	0.232
974																																																																																					0.238	0.244	0.265	0.235	0.244	0.225	0.242	0.224	0.225	0.213	0.206	0.232
975																																																																																					0.238	0.243	0.265	0.234	0.243	0.224	0.242	0.223	0.225	0.213	0.206	0.231
976																																																																																					0.237	0.242	0.264	0.234	0.243	0.223	0.241	0.222	0.224	0.212	0.205	0.231
977																																																																																					0.236	0.241	0.263	0.233	0.242	0.222	0.240	0.222	0.224	0.212	0.204	0.230
978																																																																																					0.235	0.241	0.262	0.232	0.242	0.222	0.239	0.222	0.223	0.211	0.204	0.230
979																																																																																					0.235	0.241	0.261	0.232	0.240	0.222	0.239	0.221	0.223	0.211	0.203	0.229
980																																																																																					0.235	0.241	0.261	0.231	0.240	0.221	0.240	0.221	0.222	0.210	0.203	0.228
981																																																																																					0.235	0.241	0.260	0.231	0.239	0.221	0.240	0.221	0.222	0.210	0.203	0.228
982																																																																																					0.234	0.240	0.259	0.230	0.237	0.221	0.239	0.220	0.221	0.209	0.203	0.227
983																																																																																					0.233	0.238	0.258	0.228	0.237	0.219	0.238	0.219	0.220	0.208	0.202	0.226
984																																																																																					0.231	0.236	0.256	0.227	0.235	0.217	0.235	0.217	0.218	0.207	0.200	0.224
985																																																																																					0.229	0.234	0.254	0.225	0.234	0.216	0.233	0.215	0.216	0.205	0.198	0.223
986																																																																																					0.227	0.232	0.252	0.224	0.232	0.214	0.231	0.214	0.215	0.204	0.197	0.221
987																																																																																					0.225	0.230	0.250	0.222	0.230	0.212	0.229	0.212	0.213	0.202	0.196	0.219
988																																																																																					0.223	0.227	0.248	0.220	0.228	0.210	0.227	0.210	0.211	0.200	0.194	0.217
989																																																																																					0.220	0.225	0.246	0.218	0.226	0.208	0.224	0.208	0.209	0.199	0.192	0.215
990																																																																																					0.218	0.223	0.244	0.216	0.225	0.206	0.222	0.206	0.208	0.197	0.190	0.213
991																																																																																					0.217	0.222	0.242	0.215	0.223	0.205	0.221	0.205	0.206	0.196	0.189	0.212
992																																																																																					0.217	0.222	0.241	0.214	0.222	0.205	0.221	0.205	0.206	0.195	0.189	0.211
993																																																																																					0.216	0.221	0.240	0.213	0.221	0.204	0.221	0.204	0.205	0.195	0.188	0.210
994																																																																																					0.216	0.221	0.238	0.212	0.219	0.204	0.221	0.203	0.204	0.194	0.187	0.210
995																																																																																					0.215	0.220	0.237	0.211	0.217	0.203	0.220	0.202	0.203	0.192	0.186	0.208
996																																																																																					0.212	0.217	0.235	0.208	0.216	0.200	0.217	0.200	0.201	0.191	0.185	0.206
997																																																																																					0.210	0.214	0.232	0.206	0.213	0.198	0.214	0.198	0.198	0.189	0.182	0.204
998																																																																																					0.207	0.211	0.229	0.204	0.211	0.196	0.211	0.195	0.196	0.186	0.180	0.201
999																																																																																					0.204	0.209	0.227	0.202	0.209	0.194	0.209	0.193	0.194	0.184	0.178	0.199

结果
	1	2	3	4	5	6	7	8	9	10	11	12
A	?????	?????	?????	?????	?????	?????	?????	?????	?????	?????	?????	?????	Mean Max OD [Spectrum]
B	?????	?????	?????	?????	?????	?????	?????	?????	?????	?????	?????	?????	Mean Max OD [Spectrum]
C	?????	?????	?????	?????	?????	?????	?????	?????	?????	?????	?????	?????	Mean Max OD [Spectrum]
D	?????	?????	?????	?????	?????	?????	?????	?????	?????	?????	?????	?????	Mean Max OD [Spectrum]
E	?????	?????	?????	?????	?????	?????	?????	?????	?????	?????	?????	?????	Mean Max OD [Spectrum]
F	?????	?????	?????	?????	?????	?????	?????	?????	?????	?????	?????	?????	Mean Max OD [Spectrum]
G	?????	?????	?????	?????	?????	?????	?????	?????	?????	?????	?????	?????	Mean Max OD [Spectrum]
H	1.466	1.522	1.665	1.408	1.479	1.331	1.446	1.396	1.508	1.591	1.518	1.738	Mean Max OD [Spectrum]

