

软件版本	3.11.19



实验文件路径:	
方案文件路径:	



板编号	板 1
日期	2023/5/8
时间	9:26:04
检测仪类型:	Epoch 2
检测仪序列号:	2205170B
检测类型	检测仪

程序详细信息

板类型	96 WELL PLATE
完成后弹出板	
检测	吸收光 光谱
	H1..H12
	开始: 400 nm,  停止: 999 nm,  步骤: 1 nm
	检测前校准
	检测速度: 正常,  延迟: 100 msec,  测量值/数据点: 8

Spectrum

波长	A1	A2	A3	A4	A5	A6	A7	A8	A9	A10	A11	A12	B1	B2	B3	B4	B5	B6	B7	B8	B9	B10	B11	B12	C1	C2	C3	C4	C5	C6	C7	C8	C9	C10	C11	C12	D1	D2	D3	D4	D5	D6	D7	D8	D9	D10	D11	D12	E1	E2	E3	E4	E5	E6	E7	E8	E9	E10	E11	E12	F1	F2	F3	F4	F5	F6	F7	F8	F9	F10	F11	F12	G1	G2	G3	G4	G5	G6	G7	G8	G9	G10	G11	G12	H1	H2	H3	H4	H5	H6	H7	H8	H9	H10	H11	H12
400																																																																																					0.595	0.629	0.597	0.611	0.691	0.663	0.712	0.699	0.592	0.629	0.685	0.602
401																																																																																					0.594	0.627	0.596	0.609	0.690	0.661	0.711	0.697	0.591	0.627	0.684	0.600
402																																																																																					0.592	0.625	0.594	0.607	0.688	0.659	0.708	0.696	0.589	0.626	0.682	0.598
403																																																																																					0.591	0.624	0.592	0.606	0.686	0.657	0.707	0.694	0.588	0.624	0.680	0.597
404																																																																																					0.589	0.622	0.591	0.604	0.684	0.656	0.705	0.692	0.586	0.623	0.678	0.595
405																																																																																					0.588	0.621	0.589	0.603	0.682	0.654	0.703	0.690	0.585	0.621	0.677	0.594
406																																																																																					0.587	0.620	0.588	0.602	0.681	0.653	0.702	0.689	0.584	0.620	0.675	0.593
407																																																																																					0.585	0.618	0.587	0.600	0.679	0.651	0.700	0.687	0.582	0.618	0.674	0.591
408																																																																																					0.584	0.616	0.586	0.599	0.678	0.650	0.698	0.685	0.581	0.617	0.672	0.590
409																																																																																					0.582	0.615	0.584	0.597	0.676	0.648	0.696	0.684	0.579	0.615	0.671	0.589
410																																																																																					0.581	0.614	0.583	0.596	0.674	0.646	0.695	0.682	0.578	0.614	0.669	0.587
411																																																																																					0.579	0.612	0.581	0.594	0.673	0.645	0.693	0.680	0.577	0.613	0.667	0.586
412																																																																																					0.578	0.611	0.580	0.593	0.671	0.643	0.691	0.679	0.575	0.611	0.666	0.585
413																																																																																					0.577	0.609	0.579	0.592	0.670	0.642	0.690	0.677	0.574	0.610	0.664	0.583
414																																																																																					0.575	0.608	0.578	0.590	0.668	0.640	0.688	0.675	0.573	0.608	0.663	0.582
415																																																																																					0.574	0.606	0.576	0.589	0.667	0.639	0.686	0.674	0.571	0.607	0.661	0.581
416																																																																																					0.573	0.605	0.575	0.588	0.665	0.638	0.685	0.672	0.570	0.606	0.660	0.580
417																																																																																					0.571	0.604	0.574	0.586	0.663	0.636	0.683	0.671	0.569	0.604	0.658	0.578
418																																																																																					0.570	0.602	0.572	0.585	0.662	0.635	0.682	0.669	0.567	0.603	0.657	0.577
419																																																																																					0.569	0.601	0.571	0.584	0.660	0.633	0.680	0.667	0.566	0.602	0.655	0.576
420																																																																																					0.567	0.599	0.570	0.582	0.659	0.632	0.678	0.666	0.565	0.600	0.654	0.575
421																																																																																					0.566	0.598	0.569	0.581	0.657	0.630	0.677	0.665	0.564	0.599	0.653	0.574
422																																																																																					0.565	0.597	0.568	0.580	0.656	0.629	0.676	0.663	0.563	0.598	0.652	0.572
423																																																																																					0.564	0.596	0.567	0.579	0.655	0.628	0.674	0.662	0.562	0.597	0.650	0.571
424																																																																																					0.563	0.595	0.566	0.578	0.654	0.627	0.673	0.661	0.561	0.596	0.649	0.570
425																																																																																					0.562	0.594	0.565	0.577	0.652	0.625	0.672	0.659	0.560	0.595	0.648	0.569
426																																																																																					0.561	0.592	0.564	0.576	0.651	0.624	0.670	0.658	0.559	0.594	0.647	0.568
427																																																																																					0.560	0.591	0.563	0.575	0.650	0.623	0.669	0.657	0.558	0.593	0.645	0.567
428																																																																																					0.559	0.590	0.562	0.574	0.649	0.622	0.668	0.656	0.557	0.592	0.644	0.566
429																																																																																					0.558	0.589	0.561	0.573	0.647	0.621	0.666	0.654	0.555	0.591	0.643	0.565
430																																																																																					0.556	0.588	0.559	0.571	0.646	0.619	0.665	0.653	0.554	0.589	0.642	0.564
431																																																																																					0.555	0.586	0.558	0.570	0.645	0.618	0.663	0.651	0.553	0.588	0.641	0.563
432																																																																																					0.554	0.585	0.557	0.569	0.643	0.617	0.662	0.650	0.552	0.587	0.639	0.562
433																																																																																					0.553	0.584	0.556	0.568	0.642	0.616	0.661	0.649	0.551	0.586	0.638	0.561
434																																																																																					0.552	0.583	0.555	0.567	0.641	0.614	0.659	0.647	0.550	0.585	0.637	0.560
435																																																																																					0.551	0.582	0.554	0.566	0.639	0.613	0.658	0.646	0.549	0.584	0.636	0.559
436																																																																																					0.550	0.581	0.553	0.565	0.638	0.612	0.657	0.645	0.548	0.583	0.635	0.558
437																																																																																					0.549	0.580	0.552	0.564	0.637	0.611	0.656	0.644	0.547	0.582	0.633	0.557
438																																																																																					0.548	0.578	0.551	0.563	0.636	0.610	0.654	0.642	0.546	0.581	0.632	0.556
439																																																																																					0.547	0.577	0.550	0.562	0.634	0.608	0.653	0.641	0.545	0.580	0.631	0.555
440																																																																																					0.546	0.576	0.549	0.560	0.633	0.607	0.652	0.640	0.544	0.579	0.630	0.554
441																																																																																					0.545	0.575	0.548	0.560	0.632	0.606	0.651	0.639	0.544	0.578	0.629	0.553
442																																																																																					0.544	0.574	0.547	0.559	0.631	0.605	0.650	0.638	0.543	0.577	0.628	0.552
443																																																																																					0.543	0.573	0.546	0.558	0.630	0.604	0.649	0.637	0.542	0.576	0.627	0.551
444																																																																																					0.542	0.572	0.546	0.557	0.629	0.603	0.648	0.636	0.541	0.576	0.626	0.550
445																																																																																					0.541	0.571	0.545	0.556	0.628	0.602	0.647	0.635	0.540	0.575	0.625	0.549
446																																																																																					0.540	0.570	0.544	0.555	0.627	0.601	0.645	0.634	0.539	0.574	0.624	0.549
447																																																																																					0.539	0.570	0.543	0.554	0.626	0.600	0.644	0.633	0.539	0.573	0.624	0.548
448																																																																																					0.539	0.569	0.543	0.554	0.625	0.599	0.644	0.632	0.538	0.572	0.623	0.547
449																																																																																					0.538	0.568	0.542	0.553	0.624	0.598	0.642	0.631	0.537	0.572	0.622	0.546
450																																																																																					0.537	0.567	0.541	0.552	0.623	0.597	0.641	0.630	0.536	0.571	0.621	0.546
451																																																																																					0.536	0.566	0.540	0.551	0.622	0.597	0.640	0.628	0.536	0.570	0.620	0.545
452																																																																																					0.535	0.565	0.540	0.551	0.621	0.596	0.640	0.628	0.535	0.570	0.620	0.544
453																																																																																					0.535	0.564	0.539	0.550	0.620	0.595	0.638	0.627	0.534	0.569	0.619	0.544
454																																																																																					0.534	0.564	0.538	0.549	0.619	0.594	0.638	0.626	0.534	0.568	0.618	0.543
455																																																																																					0.533	0.563	0.538	0.548	0.619	0.593	0.637	0.625	0.533	0.568	0.617	0.543
456																																																																																					0.533	0.562	0.537	0.548	0.618	0.593	0.636	0.625	0.533	0.567	0.617	0.542
457																																																																																					0.532	0.561	0.537	0.547	0.617	0.592	0.635	0.624	0.532	0.567	0.616	0.542
458																																																																																					0.531	0.561	0.536	0.547	0.616	0.591	0.635	0.623	0.532	0.566	0.616	0.541
459																																																																																					0.531	0.560	0.536	0.546	0.616	0.591	0.634	0.623	0.532	0.566	0.615	0.541
460																																																																																					0.530	0.560	0.535	0.546	0.615	0.590	0.634	0.622	0.531	0.566	0.615	0.541
461																																																																																					0.530	0.560	0.535	0.546	0.615	0.590	0.633	0.622	0.531	0.565	0.615	0.540
462																																																																																					0.530	0.559	0.535	0.546	0.615	0.590	0.633	0.621	0.531	0.565	0.615	0.540
463																																																																																					0.530	0.559	0.535	0.545	0.614	0.589	0.633	0.621	0.531	0.565	0.615	0.540
464																																																																																					0.529	0.558	0.535	0.545	0.614	0.589	0.632	0.621	0.531	0.565	0.615	0.540
465																																																																																					0.529	0.558	0.535	0.545	0.614	0.589	0.632	0.621	0.531	0.565	0.615	0.540
466																																																																																					0.529	0.558	0.535	0.545	0.614	0.589	0.632	0.620	0.531	0.565	0.615	0.540
467																																																																																					0.529	0.558	0.535	0.545	0.613	0.589	0.632	0.621	0.531	0.565	0.615	0.540
468																																																																																					0.529	0.558	0.535	0.545	0.613	0.589	0.632	0.620	0.531	0.565	0.615	0.540
469																																																																																					0.529	0.558	0.535	0.545	0.614	0.589	0.632	0.621	0.532	0.566	0.616	0.541
470																																																																																					0.529	0.558	0.536	0.546	0.614	0.589	0.632	0.621	0.532	0.566	0.616	0.541
471																																																																																					0.529	0.559	0.536	0.546	0.614	0.589	0.633	0.621	0.533	0.567	0.617	0.542
472																																																																																					0.530	0.559	0.537	0.547	0.615	0.590	0.633	0.622	0.533	0.567	0.617	0.542
473																																																																																					0.530	0.560	0.537	0.547	0.615	0.590	0.634	0.622	0.534	0.568	0.618	0.543
474																																																																																					0.531	0.560	0.538	0.548	0.616	0.591	0.635	0.623	0.535	0.569	0.620	0.544
475																																																																																					0.532	0.561	0.539	0.549	0.617	0.592	0.635	0.624	0.536	0.570	0.621	0.545
476																																																																																					0.533	0.562	0.540	0.550	0.618	0.593	0.637	0.625	0.537	0.571	0.622	0.546
477																																																																																					0.534	0.563	0.541	0.551	0.619	0.594	0.638	0.626	0.539	0.573	0.624	0.547
478																																																																																					0.535	0.564	0.543	0.553	0.620	0.595	0.639	0.628	0.540	0.574	0.625	0.549
479																																																																																					0.536	0.566	0.545	0.554	0.622	0.597	0.641	0.629	0.542	0.576	0.627	0.551
480																																																																																					0.538	0.568	0.547	0.556	0.624	0.599	0.643	0.631	0.544	0.578	0.630	0.553
481																																																																																					0.540	0.570	0.549	0.558	0.626	0.601	0.646	0.634	0.547	0.581	0.633	0.555
482																																																																																					0.542	0.572	0.552	0.561	0.629	0.604	0.649	0.637	0.550	0.584	0.636	0.558
483																																																																																					0.544	0.574	0.554	0.564	0.632	0.606	0.651	0.639	0.552	0.587	0.639	0.561
484																																																																																					0.546	0.577	0.556	0.566	0.634	0.608	0.653	0.642	0.554	0.589	0.642	0.563
485																																																																																					0.548	0.579	0.559	0.568	0.636	0.611	0.656	0.644	0.557	0.592	0.645	0.566
486																																																																																					0.551	0.581	0.561	0.571	0.639	0.613	0.659	0.647	0.559	0.595	0.648	0.568
487																																																																																					0.554	0.585	0.565	0.574	0.643	0.617	0.663	0.651	0.563	0.599	0.652	0.572
488																																																																																					0.557	0.588	0.569	0.578	0.646	0.621	0.667	0.655	0.567	0.603	0.657	0.576
489																																																																																					0.560	0.591	0.572	0.581	0.650	0.624	0.670	0.658	0.571	0.607	0.661	0.580
490																																																																																					0.564	0.595	0.576	0.585	0.654	0.628	0.675	0.663	0.575	0.611	0.666	0.584
491																																																																																					0.569	0.600	0.581	0.590	0.660	0.633	0.681	0.668	0.581	0.617	0.673	0.590
492																																																																																					0.572	0.604	0.585	0.594	0.664	0.637	0.685	0.673	0.585	0.622	0.678	0.594
493																																																																																					0.576	0.608	0.589	0.598	0.669	0.642	0.690	0.677	0.589	0.626	0.683	0.599
494																																																																																					0.581	0.612	0.594	0.603	0.674	0.647	0.695	0.683	0.595	0.632	0.689	0.604
495																																																																																					0.585	0.617	0.599	0.608	0.679	0.652	0.700	0.688	0.600	0.638	0.695	0.609
496																																																																																					0.590	0.623	0.606	0.614	0.685	0.658	0.707	0.695	0.607	0.645	0.703	0.616
497																																																																																					0.596	0.628	0.611	0.620	0.692	0.664	0.714	0.701	0.613	0.651	0.711	0.623
498																																																																																					0.600	0.633	0.617	0.625	0.697	0.669	0.719	0.707	0.619	0.658	0.718	0.628
499																																																																																					0.604	0.637	0.621	0.630	0.702	0.674	0.724	0.712	0.625	0.663	0.723	0.633
500																																																																																					0.609	0.642	0.626	0.635	0.707	0.679	0.730	0.718	0.630	0.669	0.730	0.639
501																																																																																					0.614	0.647	0.632	0.640	0.713	0.684	0.736	0.723	0.636	0.676	0.738	0.645
502																																																																																					0.618	0.652	0.637	0.645	0.718	0.690	0.741	0.729	0.643	0.682	0.745	0.651
503																																																																																					0.623	0.656	0.642	0.650	0.723	0.694	0.747	0.734	0.648	0.688	0.751	0.657
504																																																																																					0.627	0.661	0.648	0.655	0.729	0.700	0.752	0.740	0.655	0.695	0.758	0.663
505																																																																																					0.630	0.665	0.652	0.659	0.733	0.703	0.756	0.744	0.659	0.700	0.764	0.668
506																																																																																					0.634	0.668	0.656	0.663	0.737	0.708	0.761	0.749	0.664	0.705	0.770	0.673
507																																																																																					0.637	0.672	0.660	0.667	0.741	0.711	0.765	0.753	0.669	0.710	0.775	0.678
508																																																																																					0.640	0.675	0.664	0.670	0.744	0.715	0.769	0.756	0.674	0.715	0.780	0.682
509																																																																																					0.643	0.678	0.667	0.674	0.748	0.718	0.772	0.760	0.678	0.719	0.785	0.686
510																																																																																					0.645	0.680	0.671	0.676	0.750	0.720	0.775	0.763	0.682	0.723	0.789	0.690
511																																																																																					0.647	0.682	0.673	0.679	0.752	0.722	0.778	0.765	0.685	0.726	0.793	0.693
512																																																																																					0.648	0.683	0.675	0.680	0.754	0.724	0.779	0.767	0.688	0.729	0.796	0.696
513																																																																																					0.649	0.684	0.677	0.682	0.755	0.725	0.781	0.769	0.690	0.731	0.798	0.698
514																																																																																					0.649	0.685	0.678	0.682	0.755	0.725	0.781	0.769	0.691	0.732	0.800	0.699
515																																																																																					0.649	0.685	0.679	0.683	0.756	0.726	0.782	0.770	0.693	0.733	0.801	0.700
516																																																																																					0.649	0.685	0.679	0.683	0.756	0.726	0.782	0.770	0.693	0.734	0.801	0.701
517																																																																																					0.648	0.684	0.679	0.682	0.755	0.725	0.781	0.770	0.694	0.734	0.801	0.701
518																																																																																					0.647	0.683	0.679	0.682	0.754	0.724	0.780	0.769	0.693	0.734	0.801	0.700
519																																																																																					0.646	0.682	0.679	0.681	0.753	0.723	0.779	0.768	0.693	0.733	0.800	0.699
520																																																																																					0.645	0.681	0.678	0.679	0.751	0.722	0.778	0.767	0.692	0.732	0.798	0.698
521																																																																																					0.643	0.679	0.677	0.678	0.750	0.720	0.776	0.765	0.690	0.730	0.797	0.697
522																																																																																					0.642	0.677	0.675	0.676	0.748	0.718	0.774	0.763	0.689	0.728	0.794	0.695
523																																																																																					0.639	0.675	0.673	0.673	0.745	0.715	0.771	0.760	0.686	0.725	0.791	0.692
524																																																																																					0.636	0.672	0.671	0.670	0.742	0.712	0.769	0.758	0.683	0.721	0.787	0.689
525																																																																																					0.634	0.669	0.668	0.668	0.739	0.710	0.766	0.755	0.681	0.718	0.784	0.686
526																																																																																					0.631	0.666	0.665	0.665	0.736	0.707	0.763	0.752	0.677	0.715	0.779	0.682
527																																																																																					0.628	0.663	0.662	0.661	0.732	0.703	0.759	0.749	0.674	0.711	0.775	0.678
528																																																																																					0.625	0.660	0.660	0.658	0.729	0.700	0.756	0.746	0.670	0.707	0.770	0.674
529																																																																																					0.623	0.658	0.657	0.655	0.726	0.697	0.753	0.743	0.667	0.703	0.766	0.671
530																																																																																					0.621	0.655	0.654	0.652	0.723	0.695	0.750	0.740	0.664	0.700	0.762	0.667
531																																																																																					0.617	0.652	0.651	0.648	0.720	0.691	0.746	0.736	0.659	0.695	0.757	0.663
532																																																																																					0.613	0.648	0.646	0.643	0.715	0.686	0.741	0.731	0.654	0.689	0.750	0.657
533																																																																																					0.609	0.643	0.642	0.638	0.710	0.682	0.737	0.727	0.649	0.683	0.744	0.652
534																																																																																					0.606	0.640	0.638	0.634	0.706	0.678	0.733	0.723	0.644	0.678	0.738	0.647
535																																																																																					0.602	0.636	0.633	0.629	0.702	0.674	0.728	0.718	0.639	0.672	0.732	0.641
536																																																																																					0.599	0.632	0.629	0.625	0.698	0.670	0.724	0.714	0.634	0.667	0.726	0.636
537																																																																																					0.594	0.628	0.624	0.620	0.693	0.665	0.719	0.710	0.628	0.661	0.719	0.630
538																																																																																					0.590	0.624	0.619	0.615	0.688	0.661	0.714	0.705	0.623	0.655	0.712	0.624
539																																																																																					0.586	0.619	0.613	0.609	0.683	0.656	0.709	0.699	0.616	0.648	0.705	0.617
540																																																																																					0.581	0.614	0.607	0.603	0.677	0.650	0.703	0.694	0.610	0.641	0.696	0.611
541																																																																																					0.577	0.610	0.602	0.597	0.672	0.646	0.698	0.689	0.604	0.634	0.690	0.605
542																																																																																					0.573	0.605	0.597	0.592	0.668	0.641	0.693	0.684	0.598	0.629	0.683	0.599
543																																																																																					0.569	0.601	0.592	0.587	0.663	0.637	0.688	0.679	0.593	0.623	0.677	0.593
544																																																																																					0.564	0.596	0.586	0.581	0.658	0.631	0.683	0.674	0.586	0.616	0.669	0.587
545																																																																																					0.558	0.591	0.579	0.574	0.651	0.626	0.676	0.668	0.579	0.608	0.661	0.579
546																																																																																					0.553	0.585	0.572	0.567	0.646	0.620	0.670	0.661	0.573	0.601	0.653	0.572
547																																																																																					0.549	0.581	0.567	0.561	0.640	0.615	0.665	0.656	0.567	0.595	0.646	0.567
548																																																																																					0.544	0.576	0.560	0.555	0.635	0.609	0.658	0.650	0.560	0.588	0.638	0.560
549																																																																																					0.539	0.571	0.554	0.548	0.629	0.604	0.653	0.645	0.554	0.581	0.631	0.554
550																																																																																					0.533	0.565	0.546	0.541	0.623	0.598	0.646	0.638	0.547	0.574	0.623	0.547
551																																																																																					0.527	0.559	0.539	0.534	0.616	0.592	0.640	0.631	0.540	0.566	0.616	0.540
552																																																																																					0.521	0.553	0.532	0.526	0.609	0.585	0.633	0.625	0.533	0.559	0.607	0.533
553																																																																																					0.516	0.547	0.524	0.519	0.603	0.579	0.626	0.618	0.527	0.552	0.600	0.526
554																																																																																					0.510	0.541	0.517	0.512	0.596	0.573	0.619	0.611	0.520	0.545	0.593	0.520
555																																																																																					0.504	0.535	0.510	0.505	0.590	0.566	0.612	0.605	0.514	0.539	0.586	0.514
556																																																																																					0.498	0.529	0.502	0.497	0.582	0.559	0.604	0.597	0.507	0.531	0.578	0.507
557																																																																																					0.492	0.522	0.494	0.490	0.575	0.552	0.597	0.590	0.500	0.525	0.571	0.501
558																																																																																					0.485	0.515	0.486	0.482	0.567	0.545	0.589	0.582	0.494	0.518	0.563	0.494
559																																																																																					0.479	0.509	0.479	0.475	0.560	0.538	0.582	0.575	0.488	0.512	0.557	0.489
560																																																																																					0.472	0.502	0.471	0.468	0.552	0.531	0.574	0.567	0.482	0.505	0.550	0.482
561																																																																																					0.465	0.495	0.463	0.460	0.544	0.523	0.566	0.559	0.475	0.499	0.543	0.476
562																																																																																					0.459	0.488	0.457	0.453	0.537	0.516	0.558	0.552	0.470	0.493	0.538	0.471
563																																																																																					0.453	0.482	0.450	0.447	0.530	0.510	0.551	0.545	0.465	0.488	0.532	0.466
564																																																																																					0.447	0.476	0.443	0.440	0.523	0.503	0.544	0.537	0.460	0.483	0.527	0.462
565																																																																																					0.440	0.468	0.435	0.433	0.514	0.495	0.535	0.529	0.454	0.477	0.520	0.456
566																																																																																					0.433	0.461	0.428	0.426	0.507	0.487	0.527	0.521	0.450	0.472	0.515	0.452
567																																																																																					0.427	0.454	0.421	0.419	0.499	0.480	0.519	0.513	0.445	0.467	0.510	0.447
568																																																																																					0.420	0.448	0.415	0.413	0.492	0.473	0.512	0.506	0.440	0.462	0.505	0.443
569																																																																																					0.414	0.440	0.408	0.407	0.484	0.466	0.504	0.497	0.436	0.457	0.500	0.438
570																																																																																					0.408	0.434	0.401	0.400	0.477	0.459	0.496	0.490	0.431	0.453	0.496	0.434
571																																																																																					0.401	0.426	0.394	0.393	0.468	0.451	0.487	0.481	0.427	0.448	0.491	0.430
572																																																																																					0.394	0.419	0.388	0.387	0.461	0.443	0.480	0.473	0.423	0.444	0.487	0.426
573																																																																																					0.389	0.414	0.383	0.382	0.455	0.437	0.473	0.467	0.420	0.441	0.484	0.423
574																																																																																					0.383	0.407	0.377	0.377	0.447	0.430	0.466	0.460	0.416	0.438	0.480	0.420
575																																																																																					0.377	0.401	0.371	0.371	0.440	0.423	0.458	0.452	0.413	0.434	0.477	0.417
576																																																																																					0.371	0.395	0.365	0.366	0.433	0.417	0.451	0.446	0.410	0.431	0.474	0.414
577																																																																																					0.365	0.388	0.360	0.361	0.427	0.411	0.444	0.438	0.407	0.428	0.471	0.412
578																																																																																					0.360	0.382	0.354	0.355	0.419	0.404	0.437	0.431	0.405	0.426	0.469	0.409
579																																																																																					0.354	0.376	0.349	0.350	0.413	0.397	0.430	0.424	0.402	0.423	0.466	0.407
580																																																																																					0.348	0.369	0.343	0.345	0.406	0.391	0.423	0.417	0.400	0.420	0.464	0.405
581																																																																																					0.343	0.364	0.338	0.340	0.399	0.385	0.416	0.410	0.398	0.418	0.462	0.403
582																																																																																					0.338	0.358	0.333	0.335	0.393	0.379	0.409	0.404	0.396	0.416	0.460	0.401
583																																																																																					0.333	0.352	0.328	0.331	0.387	0.373	0.403	0.397	0.394	0.415	0.458	0.400
584																																																																																					0.327	0.347	0.323	0.326	0.380	0.366	0.396	0.390	0.392	0.413	0.457	0.398
585																																																																																					0.322	0.341	0.319	0.321	0.374	0.361	0.390	0.384	0.391	0.412	0.456	0.397
586																																																																																					0.317	0.336	0.314	0.317	0.368	0.355	0.384	0.378	0.390	0.411	0.455	0.397
587																																																																																					0.313	0.331	0.311	0.314	0.364	0.351	0.379	0.373	0.389	0.410	0.455	0.396
588																																																																																					0.309	0.326	0.306	0.310	0.358	0.346	0.373	0.368	0.388	0.409	0.454	0.395
589																																																																																					0.305	0.322	0.303	0.306	0.354	0.341	0.368	0.363	0.388	0.409	0.454	0.395
590																																																																																					0.301	0.318	0.299	0.303	0.349	0.336	0.363	0.358	0.388	0.409	0.454	0.395
591																																																																																					0.297	0.313	0.295	0.299	0.344	0.332	0.358	0.353	0.388	0.409	0.455	0.395
592																																																																																					0.293	0.309	0.292	0.296	0.340	0.327	0.354	0.348	0.388	0.409	0.455	0.396
593																																																																																					0.290	0.305	0.289	0.293	0.335	0.324	0.349	0.344	0.388	0.410	0.456	0.397
594																																																																																					0.286	0.301	0.286	0.290	0.331	0.320	0.345	0.340	0.389	0.411	0.458	0.398
595																																																																																					0.283	0.297	0.282	0.287	0.327	0.315	0.341	0.335	0.390	0.412	0.459	0.399
596																																																																																					0.280	0.294	0.279	0.284	0.323	0.312	0.337	0.331	0.391	0.413	0.461	0.400
597																																																																																					0.277	0.291	0.277	0.282	0.320	0.309	0.333	0.328	0.392	0.414	0.463	0.401
598																																																																																					0.274	0.288	0.274	0.280	0.316	0.305	0.330	0.324	0.393	0.416	0.465	0.403
599																																																																																					0.271	0.285	0.272	0.277	0.313	0.302	0.326	0.321	0.395	0.418	0.467	0.405
600																																																																																					0.268	0.281	0.269	0.275	0.309	0.299	0.323	0.317	0.397	0.420	0.470	0.407
601																																																																																					0.265	0.278	0.266	0.272	0.306	0.295	0.319	0.313	0.399	0.422	0.473	0.410
602																																																																																					0.263	0.275	0.264	0.270	0.302	0.292	0.315	0.310	0.402	0.425	0.477	0.413
603																																																																																					0.260	0.272	0.262	0.268	0.300	0.290	0.313	0.307	0.405	0.428	0.480	0.416
604																																																																																					0.258	0.270	0.260	0.266	0.297	0.287	0.310	0.305	0.407	0.431	0.484	0.418
605																																																																																					0.256	0.268	0.258	0.265	0.295	0.285	0.307	0.302	0.409	0.434	0.487	0.421
606																																																																																					0.254	0.266	0.257	0.263	0.293	0.283	0.305	0.300	0.412	0.437	0.491	0.425
607																																																																																					0.253	0.264	0.255	0.262	0.290	0.281	0.303	0.297	0.416	0.440	0.496	0.428
608																																																																																					0.251	0.261	0.254	0.260	0.288	0.278	0.300	0.295	0.419	0.445	0.501	0.432
609																																																																																					0.249	0.259	0.252	0.259	0.286	0.276	0.298	0.293	0.423	0.449	0.506	0.437
610																																																																																					0.247	0.257	0.250	0.257	0.284	0.274	0.296	0.291	0.427	0.453	0.512	0.441
611																																																																																					0.245	0.256	0.249	0.256	0.282	0.272	0.294	0.289	0.431	0.458	0.516	0.445
612																																																																																					0.244	0.254	0.248	0.255	0.280	0.271	0.292	0.287	0.436	0.462	0.523	0.450
613																																																																																					0.242	0.252	0.246	0.254	0.278	0.269	0.290	0.285	0.440	0.467	0.529	0.456
614																																																																																					0.241	0.251	0.245	0.253	0.276	0.267	0.288	0.283	0.446	0.473	0.536	0.461
615																																																																																					0.239	0.249	0.244	0.252	0.275	0.266	0.287	0.281	0.451	0.479	0.543	0.467
616																																																																																					0.238	0.247	0.243	0.251	0.273	0.264	0.285	0.280	0.457	0.485	0.550	0.473
617																																																																																					0.236	0.246	0.242	0.250	0.271	0.263	0.283	0.278	0.463	0.492	0.558	0.480
618																																																																																					0.235	0.245	0.241	0.249	0.270	0.261	0.282	0.277	0.469	0.498	0.567	0.487
619																																																																																					0.234	0.243	0.241	0.249	0.269	0.260	0.281	0.276	0.475	0.505	0.575	0.493
620																																																																																					0.233	0.242	0.240	0.248	0.267	0.259	0.279	0.274	0.483	0.513	0.584	0.501
621																																																																																					0.232	0.240	0.239	0.247	0.266	0.258	0.278	0.273	0.490	0.521	0.594	0.509
622																																																																																					0.231	0.239	0.239	0.247	0.265	0.257	0.277	0.272	0.497	0.529	0.603	0.517
623																																																																																					0.230	0.238	0.238	0.246	0.264	0.256	0.276	0.271	0.505	0.538	0.614	0.526
624																																																																																					0.229	0.237	0.238	0.246	0.263	0.255	0.275	0.270	0.512	0.545	0.622	0.533
625																																																																																					0.229	0.237	0.237	0.246	0.262	0.254	0.274	0.270	0.520	0.553	0.632	0.542
626																																																																																					0.228	0.236	0.237	0.246	0.261	0.253	0.274	0.269	0.528	0.562	0.643	0.550
627																																																																																					0.227	0.235	0.237	0.246	0.261	0.253	0.273	0.268	0.537	0.572	0.654	0.560
628																																																																																					0.227	0.234	0.237	0.246	0.260	0.252	0.272	0.268	0.545	0.581	0.665	0.569
629																																																																																					0.226	0.234	0.237	0.246	0.259	0.251	0.272	0.267	0.554	0.590	0.677	0.579
630																																																																																					0.226	0.233	0.237	0.246	0.259	0.251	0.271	0.267	0.564	0.601	0.689	0.589
631																																																																																					0.225	0.232	0.237	0.246	0.258	0.251	0.271	0.266	0.574	0.611	0.702	0.600
632																																																																																					0.225	0.232	0.237	0.246	0.258	0.250	0.270	0.266	0.584	0.622	0.714	0.610
633																																																																																					0.224	0.231	0.237	0.246	0.257	0.250	0.270	0.266	0.595	0.634	0.728	0.622
634																																																																																					0.224	0.231	0.237	0.247	0.257	0.250	0.270	0.266	0.605	0.645	0.741	0.633
635																																																																																					0.224	0.231	0.237	0.247	0.257	0.249	0.270	0.265	0.616	0.657	0.756	0.644
636																																																																																					0.223	0.230	0.238	0.248	0.257	0.249	0.269	0.265	0.628	0.669	0.770	0.657
637																																																																																					0.223	0.230	0.238	0.248	0.257	0.249	0.269	0.265	0.639	0.681	0.784	0.669
638																																																																																					0.223	0.230	0.239	0.249	0.257	0.249	0.270	0.266	0.651	0.695	0.799	0.682
639																																																																																					0.223	0.230	0.240	0.250	0.257	0.249	0.270	0.266	0.664	0.708	0.816	0.695
640																																																																																					0.223	0.229	0.240	0.250	0.257	0.249	0.270	0.266	0.676	0.722	0.831	0.709
641																																																																																					0.223	0.229	0.241	0.251	0.257	0.250	0.270	0.266	0.689	0.735	0.848	0.722
642																																																																																					0.223	0.229	0.242	0.252	0.257	0.250	0.270	0.267	0.703	0.750	0.865	0.736
643																																																																																					0.223	0.229	0.243	0.253	0.257	0.250	0.271	0.267	0.716	0.764	0.881	0.750
644																																																																																					0.223	0.230	0.243	0.254	0.257	0.250	0.271	0.268	0.729	0.779	0.898	0.765
645																																																																																					0.224	0.230	0.245	0.256	0.258	0.251	0.272	0.268	0.743	0.794	0.915	0.780
646																																																																																					0.224	0.230	0.246	0.257	0.258	0.251	0.272	0.269	0.757	0.809	0.933	0.794
647																																																																																					0.224	0.230	0.247	0.258	0.258	0.252	0.273	0.269	0.772	0.825	0.951	0.810
648																																																																																					0.224	0.230	0.248	0.260	0.259	0.252	0.273	0.270	0.787	0.841	0.969	0.826
649																																																																																					0.225	0.231	0.250	0.261	0.260	0.253	0.274	0.271	0.802	0.858	0.988	0.842
650																																																																																					0.225	0.231	0.251	0.263	0.260	0.254	0.275	0.272	0.815	0.872	1.004	0.855
651																																																																																					0.226	0.231	0.253	0.264	0.261	0.254	0.276	0.273	0.830	0.888	1.022	0.871
652																																																																																					0.226	0.232	0.254	0.266	0.262	0.255	0.277	0.274	0.844	0.903	1.040	0.886
653																																																																																					0.227	0.232	0.256	0.267	0.262	0.256	0.278	0.275	0.859	0.919	1.058	0.902
654																																																																																					0.228	0.233	0.258	0.269	0.263	0.257	0.279	0.276	0.874	0.936	1.076	0.917
655																																																																																					0.228	0.233	0.260	0.271	0.264	0.258	0.280	0.277	0.890	0.953	1.095	0.934
656																																																																																					0.229	0.234	0.262	0.274	0.265	0.259	0.281	0.279	0.906	0.970	1.115	0.951
657																																																																																					0.230	0.235	0.264	0.276	0.266	0.260	0.282	0.280	0.922	0.988	1.135	0.968
658																																																																																					0.231	0.236	0.266	0.278	0.267	0.261	0.284	0.281	0.938	1.004	1.154	0.984
659																																																																																					0.232	0.236	0.268	0.281	0.269	0.262	0.285	0.283	0.954	1.022	1.174	1.001
660																																																																																					0.233	0.237	0.270	0.283	0.270	0.264	0.286	0.284	0.968	1.038	1.191	1.016
661																																																																																					0.234	0.238	0.273	0.286	0.271	0.265	0.288	0.286	0.985	1.056	1.211	1.033
662																																																																																					0.235	0.239	0.276	0.289	0.273	0.267	0.290	0.288	1.001	1.074	1.231	1.050
663																																																																																					0.236	0.240	0.279	0.291	0.274	0.268	0.292	0.290	1.017	1.091	1.250	1.067
664																																																																																					0.237	0.241	0.281	0.295	0.276	0.270	0.294	0.292	1.034	1.109	1.269	1.083
665																																																																																					0.238	0.242	0.284	0.298	0.277	0.271	0.295	0.294	1.049	1.126	1.288	1.100
666																																																																																					0.239	0.244	0.287	0.301	0.279	0.273	0.297	0.296	1.063	1.141	1.305	1.115
667																																																																																					0.241	0.245	0.291	0.304	0.281	0.275	0.299	0.298	1.080	1.159	1.326	1.132
668																																																																																					0.242	0.246	0.294	0.308	0.283	0.277	0.302	0.301	1.097	1.177	1.344	1.149
669																																																																																					0.244	0.248	0.298	0.312	0.284	0.279	0.304	0.303	1.112	1.194	1.363	1.164
670																																																																																					0.245	0.249	0.301	0.316	0.286	0.281	0.306	0.306	1.127	1.211	1.381	1.180
671																																																																																					0.247	0.251	0.305	0.320	0.289	0.283	0.309	0.308	1.142	1.227	1.398	1.195
672																																																																																					0.248	0.252	0.309	0.323	0.290	0.285	0.311	0.311	1.156	1.243	1.414	1.210
673																																																																																					0.250	0.254	0.313	0.328	0.293	0.287	0.314	0.314	1.172	1.259	1.432	1.226
674																																																																																					0.252	0.256	0.318	0.333	0.295	0.290	0.317	0.317	1.187	1.277	1.450	1.242
675																																																																																					0.254	0.258	0.322	0.337	0.298	0.293	0.320	0.320	1.201	1.292	1.466	1.256
676																																																																																					0.256	0.260	0.327	0.342	0.300	0.295	0.323	0.324	1.216	1.308	1.483	1.270
677																																																																																					0.258	0.262	0.332	0.347	0.303	0.298	0.326	0.327	1.230	1.323	1.498	1.284
678																																																																																					0.260	0.263	0.337	0.352	0.306	0.301	0.329	0.330	1.243	1.338	1.513	1.298
679																																																																																					0.263	0.265	0.342	0.358	0.309	0.303	0.332	0.334	1.256	1.352	1.528	1.310
680																																																																																					0.265	0.268	0.347	0.364	0.312	0.307	0.336	0.338	1.270	1.367	1.543	1.324
681																																																																																					0.268	0.270	0.353	0.370	0.315	0.310	0.340	0.342	1.282	1.381	1.557	1.336
682																																																																																					0.270	0.273	0.359	0.376	0.318	0.313	0.343	0.346	1.294	1.394	1.570	1.348
683																																																																																					0.273	0.275	0.365	0.382	0.321	0.317	0.347	0.350	1.306	1.406	1.582	1.359
684																																																																																					0.275	0.277	0.371	0.388	0.325	0.320	0.351	0.354	1.317	1.419	1.594	1.370
685																																																																																					0.278	0.280	0.378	0.395	0.329	0.324	0.355	0.359	1.328	1.432	1.606	1.381
686																																																																																					0.281	0.283	0.385	0.403	0.333	0.328	0.360	0.364	1.339	1.444	1.618	1.392
687																																																																																					0.285	0.286	0.393	0.410	0.337	0.332	0.365	0.369	1.350	1.456	1.628	1.401
688																																																																																					0.288	0.289	0.400	0.418	0.341	0.336	0.370	0.374	1.359	1.466	1.637	1.411
689																																																																																					0.291	0.293	0.408	0.426	0.345	0.341	0.375	0.379	1.369	1.477	1.647	1.419
690																																																																																					0.295	0.296	0.415	0.434	0.349	0.345	0.380	0.384	1.377	1.486	1.654	1.427
691																																																																																					0.298	0.299	0.423	0.441	0.353	0.350	0.385	0.390	1.385	1.495	1.661	1.433
692																																																																																					0.302	0.302	0.431	0.450	0.358	0.354	0.390	0.395	1.392	1.503	1.668	1.440
693																																																																																					0.306	0.306	0.440	0.459	0.363	0.360	0.396	0.402	1.399	1.511	1.674	1.447
694																																																																																					0.310	0.310	0.449	0.468	0.368	0.365	0.402	0.408	1.406	1.519	1.680	1.452
695																																																																																					0.314	0.314	0.458	0.477	0.373	0.370	0.408	0.414	1.411	1.525	1.684	1.457
696																																																																																					0.318	0.318	0.467	0.488	0.379	0.376	0.414	0.421	1.417	1.532	1.688	1.462
697																																																																																					0.323	0.322	0.477	0.499	0.385	0.382	0.422	0.429	1.423	1.538	1.692	1.466
698																																																																																					0.327	0.326	0.487	0.508	0.390	0.387	0.428	0.435	1.426	1.542	1.695	1.469
699																																																																																					0.331	0.331	0.496	0.518	0.396	0.393	0.435	0.443	1.430	1.547	1.697	1.472
700																																																																																					0.336	0.335	0.506	0.528	0.402	0.399	0.441	0.450	1.433	1.550	1.698	1.474
701																																																																																					0.341	0.340	0.516	0.538	0.408	0.405	0.448	0.457	1.436	1.554	1.698	1.475
702																																																																																					0.346	0.344	0.527	0.550	0.414	0.412	0.456	0.466	1.438	1.556	1.699	1.477
703																																																																																					0.352	0.350	0.539	0.563	0.422	0.419	0.465	0.475	1.440	1.559	1.698	1.477
704																																																																																					0.357	0.355	0.551	0.575	0.429	0.426	0.473	0.484	1.441	1.560	1.697	1.477
705																																																																																					0.362	0.360	0.563	0.587	0.436	0.434	0.481	0.492	1.442	1.562	1.694	1.477
706																																																																																					0.368	0.366	0.575	0.599	0.444	0.441	0.490	0.502	1.442	1.563	1.692	1.476
707																																																																																					0.375	0.372	0.587	0.612	0.451	0.449	0.499	0.511	1.442	1.563	1.690	1.474
708																																																																																					0.381	0.378	0.599	0.625	0.459	0.457	0.508	0.521	1.441	1.563	1.687	1.472
709																																																																																					0.388	0.384	0.612	0.638	0.467	0.466	0.518	0.532	1.440	1.562	1.683	1.470
710																																																																																					0.394	0.390	0.625	0.651	0.476	0.474	0.527	0.542	1.439	1.561	1.679	1.468
711																																																																																					0.401	0.397	0.638	0.665	0.484	0.483	0.538	0.552	1.437	1.559	1.674	1.465
712																																																																																					0.407	0.403	0.651	0.679	0.492	0.492	0.547	0.564	1.434	1.557	1.669	1.461
713																																																																																					0.414	0.410	0.665	0.693	0.502	0.501	0.558	0.575	1.432	1.554	1.664	1.457
714																																																																																					0.422	0.417	0.679	0.708	0.511	0.511	0.570	0.587	1.429	1.551	1.658	1.453
715																																																																																					0.430	0.425	0.694	0.723	0.521	0.521	0.581	0.599	1.425	1.548	1.651	1.448
716																																																																																					0.437	0.432	0.708	0.738	0.531	0.531	0.593	0.611	1.421	1.544	1.644	1.443
717																																																																																					0.445	0.439	0.723	0.754	0.541	0.541	0.605	0.623	1.417	1.540	1.638	1.438
718																																																																																					0.453	0.447	0.737	0.769	0.551	0.552	0.617	0.636	1.413	1.535	1.630	1.432
719																																																																																					0.462	0.455	0.752	0.785	0.562	0.563	0.629	0.650	1.407	1.530	1.621	1.426
720																																																																																					0.470	0.463	0.767	0.800	0.573	0.574	0.641	0.663	1.402	1.524	1.614	1.420
721																																																																																					0.479	0.472	0.783	0.817	0.584	0.586	0.655	0.677	1.396	1.518	1.605	1.413
722																																																																																					0.489	0.482	0.800	0.835	0.597	0.598	0.670	0.693	1.389	1.511	1.595	1.405
723																																																																																					0.498	0.491	0.816	0.852	0.609	0.611	0.684	0.708	1.383	1.504	1.585	1.397
724																																																																																					0.507	0.500	0.832	0.869	0.621	0.623	0.698	0.723	1.377	1.497	1.576	1.390
725																																																																																					0.518	0.510	0.849	0.887	0.634	0.637	0.714	0.740	1.369	1.490	1.565	1.382
726																																																																																					0.527	0.520	0.866	0.904	0.647	0.650	0.729	0.755	1.362	1.483	1.555	1.374
727																																																																																					0.538	0.530	0.883	0.921	0.660	0.663	0.744	0.771	1.354	1.474	1.545	1.364
728																																																																																					0.549	0.541	0.900	0.940	0.675	0.678	0.761	0.789	1.347	1.466	1.534	1.356
729																																																																																					0.560	0.552	0.918	0.959	0.689	0.693	0.778	0.807	1.339	1.457	1.523	1.347
730																																																																																					0.571	0.563	0.934	0.977	0.703	0.707	0.794	0.824	1.330	1.448	1.512	1.338
731																																																																																					0.583	0.575	0.953	0.996	0.719	0.723	0.812	0.844	1.322	1.439	1.500	1.328
732																																																																																					0.595	0.587	0.970	1.015	0.734	0.738	0.830	0.862	1.313	1.430	1.488	1.319
733																																																																																					0.607	0.599	0.989	1.034	0.750	0.754	0.848	0.881	1.304	1.420	1.477	1.308
734																																																																																					0.618	0.610	1.005	1.051	0.764	0.770	0.865	0.900	1.296	1.411	1.466	1.300
735																																																																																					0.631	0.623	1.023	1.070	0.780	0.786	0.884	0.919	1.286	1.401	1.453	1.289
736																																																																																					0.644	0.636	1.042	1.090	0.798	0.803	0.903	0.940	1.276	1.390	1.440	1.278
737																																																																																					0.657	0.650	1.060	1.109	0.815	0.821	0.924	0.961	1.265	1.379	1.427	1.267
738																																																																																					0.671	0.664	1.078	1.128	0.833	0.839	0.944	0.982	1.255	1.369	1.415	1.256
739																																																																																					0.684	0.677	1.096	1.148	0.850	0.857	0.964	1.004	1.245	1.357	1.400	1.245
740																																																																																					0.700	0.693	1.116	1.169	0.870	0.877	0.987	1.028	1.233	1.344	1.386	1.232
741																																																																																					0.714	0.707	1.134	1.188	0.888	0.895	1.008	1.049	1.222	1.333	1.372	1.221
742																																																																																					0.728	0.722	1.152	1.206	0.906	0.914	1.029	1.071	1.212	1.321	1.359	1.210
743																																																																																					0.742	0.736	1.169	1.226	0.925	0.934	1.050	1.094	1.201	1.309	1.344	1.198
744																																																																																					0.757	0.752	1.188	1.245	0.946	0.954	1.073	1.117	1.189	1.297	1.331	1.186
745																																																																																					0.773	0.768	1.206	1.264	0.965	0.974	1.096	1.141	1.177	1.284	1.316	1.173
746																																																																																					0.787	0.783	1.223	1.283	0.985	0.993	1.118	1.165	1.166	1.272	1.302	1.162
747																																																																																					0.803	0.801	1.242	1.302	1.006	1.015	1.142	1.190	1.154	1.260	1.288	1.149
748																																																																																					0.820	0.817	1.259	1.321	1.027	1.036	1.165	1.214	1.143	1.247	1.274	1.137
749																																																																																					0.836	0.835	1.277	1.339	1.049	1.058	1.190	1.239	1.131	1.234	1.259	1.125
750																																																																																					0.853	0.852	1.295	1.358	1.070	1.079	1.214	1.265	1.119	1.221	1.246	1.113
751																																																																																					0.869	0.869	1.311	1.377	1.091	1.101	1.238	1.289	1.108	1.209	1.232	1.101
752																																																																																					0.884	0.886	1.327	1.393	1.111	1.121	1.261	1.313	1.097	1.197	1.218	1.089
753																																																																																					0.901	0.903	1.344	1.411	1.133	1.143	1.285	1.337	1.085	1.184	1.205	1.077
754																																																																																					0.918	0.921	1.360	1.429	1.155	1.165	1.310	1.363	1.074	1.172	1.191	1.065
755																																																																																					0.935	0.940	1.377	1.446	1.178	1.188	1.336	1.389	1.062	1.159	1.176	1.053
756																																																																																					0.953	0.959	1.393	1.464	1.201	1.212	1.361	1.415	1.050	1.146	1.163	1.041
757																																																																																					0.971	0.979	1.410	1.482	1.225	1.235	1.387	1.442	1.038	1.133	1.149	1.029
758																																																																																					0.989	0.998	1.425	1.498	1.248	1.258	1.413	1.468	1.026	1.121	1.135	1.017
759																																																																																					1.009	1.019	1.442	1.516	1.274	1.284	1.441	1.497	1.013	1.107	1.120	1.004
760																																																																																					1.027	1.039	1.458	1.533	1.297	1.308	1.468	1.523	1.002	1.094	1.106	0.992
761																																																																																					1.048	1.062	1.475	1.552	1.325	1.335	1.498	1.554	0.988	1.080	1.090	0.978
762																																																																																					1.069	1.085	1.491	1.569	1.351	1.362	1.527	1.584	0.976	1.065	1.076	0.965
763																																																																																					1.088	1.106	1.506	1.585	1.376	1.386	1.553	1.610	0.965	1.053	1.062	0.953
764																																																																																					1.108	1.127	1.521	1.601	1.401	1.411	1.581	1.638	0.953	1.041	1.049	0.942
765																																																																																					1.123	1.143	1.531	1.613	1.421	1.430	1.602	1.659	0.944	1.031	1.039	0.933
766																																																																																					1.140	1.163	1.544	1.626	1.443	1.453	1.626	1.683	0.934	1.019	1.026	0.922
767																																																																																					1.160	1.185	1.558	1.641	1.469	1.478	1.654	1.711	0.922	1.006	1.013	0.910
768																																																																																					1.181	1.208	1.572	1.656	1.496	1.506	1.683	1.740	0.910	0.993	0.999	0.898
769																																																																																					1.202	1.231	1.586	1.670	1.522	1.532	1.711	1.768	0.898	0.980	0.986	0.886
770																																																																																					1.223	1.254	1.598	1.685	1.550	1.558	1.740	1.796	0.886	0.968	0.972	0.874
771																																																																																					1.242	1.276	1.610	1.697	1.574	1.581	1.764	1.822	0.876	0.956	0.960	0.863
772																																																																																					1.261	1.298	1.622	1.710	1.599	1.607	1.792	1.848	0.865	0.944	0.948	0.853
773																																																																																					1.283	1.322	1.634	1.724	1.627	1.633	1.821	1.876	0.853	0.931	0.935	0.841
774																																																																																					1.303	1.344	1.645	1.736	1.652	1.658	1.848	1.904	0.843	0.920	0.923	0.831
775																																																																																					1.325	1.368	1.657	1.748	1.679	1.685	1.877	1.931	0.831	0.907	0.910	0.819
776																																																																																					1.345	1.392	1.667	1.760	1.705	1.710	1.904	1.957	0.821	0.895	0.898	0.808
777																																																																																					1.365	1.414	1.677	1.770	1.730	1.734	1.929	1.982	0.811	0.885	0.886	0.798
778																																																																																					1.386	1.438	1.687	1.781	1.758	1.761	1.956	2.010	0.800	0.872	0.874	0.787
779																																																																																					1.408	1.463	1.697	1.792	1.785	1.787	1.984	2.036	0.789	0.861	0.862	0.776
780																																																																																					1.429	1.487	1.707	1.803	1.810	1.812	2.011	2.062	0.778	0.849	0.850	0.766
781																																																																																					1.450	1.511	1.716	1.812	1.837	1.838	2.038	2.089	0.768	0.837	0.838	0.755
782																																																																																					1.473	1.538	1.725	1.823	1.865	1.866	2.065	2.116	0.757	0.826	0.826	0.744
783																																																																																					1.494	1.561	1.733	1.831	1.891	1.891	2.092	2.140	0.747	0.815	0.815	0.734
784																																																																																					1.515	1.586	1.742	1.840	1.918	1.916	2.119	2.167	0.736	0.803	0.803	0.724
785																																																																																					1.536	1.611	1.749	1.849	1.945	1.942	2.146	2.191	0.726	0.792	0.791	0.714
786																																																																																					1.560	1.637	1.756	1.857	1.972	1.968	2.172	2.217	0.715	0.780	0.780	0.703
787																																																																																					1.581	1.662	1.764	1.865	1.998	1.992	2.199	2.241	0.705	0.769	0.769	0.693
788																																																																																					1.602	1.687	1.770	1.873	2.024	2.017	2.226	2.265	0.695	0.758	0.758	0.684
789																																																																																					1.622	1.709	1.775	1.877	2.048	2.041	2.247	2.287	0.686	0.748	0.748	0.674
790																																																																																					1.642	1.733	1.781	1.885	2.073	2.065	2.269	2.309	0.677	0.738	0.737	0.666
791																																																																																					1.662	1.757	1.786	1.890	2.096	2.087	2.294	2.329	0.668	0.728	0.727	0.657
792																																																																																					1.683	1.781	1.790	1.896	2.121	2.109	2.316	2.350	0.658	0.718	0.717	0.647
793																																																																																					1.703	1.804	1.794	1.900	2.147	2.134	2.338	2.374	0.649	0.708	0.707	0.638
794																																																																																					1.724	1.830	1.799	1.905	2.172	2.156	2.364	2.392	0.640	0.697	0.696	0.629
795																																																																																					1.744	1.854	1.802	1.908	2.196	2.180	2.388	2.415	0.631	0.687	0.686	0.620
796																																																																																					1.766	1.881	1.806	1.912	2.222	2.204	2.409	2.435	0.621	0.677	0.675	0.610
797																																																																																					1.786	1.902	1.808	1.915	2.241	2.225	2.429	2.455	0.613	0.668	0.666	0.602
798																																																																																					1.805	1.926	1.810	1.918	2.268	2.244	2.448	2.475	0.604	0.658	0.656	0.594
799																																																																																					1.824	1.948	1.812	1.921	2.286	2.265	2.471	2.487	0.596	0.648	0.647	0.585
800																																																																																					1.843	1.970	1.813	1.923	2.310	2.287	2.488	2.506	0.587	0.639	0.638	0.577
801																																																																																					1.863	1.994	1.814	1.925	2.332	2.307	2.513	2.524	0.578	0.630	0.629	0.568
802																																																																																					1.881	2.015	1.816	1.925	2.353	2.325	2.526	2.538	0.571	0.621	0.620	0.560
803																																																																																					1.899	2.039	1.816	1.926	2.372	2.344	2.542	2.555	0.563	0.612	0.611	0.553
804																																																																																					1.917	2.058	1.816	1.925	2.393	2.362	2.561	2.566	0.555	0.604	0.603	0.545
805																																																																																					1.935	2.079	1.815	1.925	2.413	2.378	2.577	2.580	0.546	0.595	0.594	0.537
806																																																																																					1.952	2.099	1.814	1.926	2.430	2.397	2.593	2.598	0.539	0.587	0.586	0.530
807																																																																																					1.968	2.121	1.814	1.925	2.450	2.409	2.609	2.610	0.532	0.578	0.578	0.522
808																																																																																					1.985	2.141	1.812	1.923	2.467	2.428	2.622	2.617	0.524	0.570	0.569	0.515
809																																																																																					2.002	2.160	1.810	1.922	2.485	2.442	2.635	2.633	0.517	0.562	0.561	0.508
810																																																																																					2.016	2.181	1.808	1.920	2.501	2.458	2.648	2.635	0.510	0.554	0.554	0.501
811																																																																																					2.034	2.199	1.805	1.917	2.519	2.474	2.658	2.649	0.503	0.546	0.545	0.494
812																																																																																					2.047	2.215	1.804	1.916	2.538	2.485	2.675	2.660	0.496	0.539	0.538	0.487
813																																																																																					2.063	2.237	1.800	1.912	2.552	2.498	2.685	2.668	0.488	0.530	0.530	0.480
814																																																																																					2.078	2.254	1.796	1.909	2.566	2.507	2.697	2.672	0.482	0.523	0.523	0.473
815																																																																																					2.094	2.272	1.792	1.904	2.585	2.524	2.705	2.679	0.474	0.515	0.515	0.467
816																																																																																					2.108	2.289	1.788	1.900	2.591	2.537	2.714	2.684	0.468	0.508	0.508	0.460
817																																																																																					2.120	2.306	1.784	1.895	2.607	2.547	2.715	2.692	0.461	0.501	0.501	0.453
818																																																																																					2.133	2.322	1.779	1.891	2.622	2.556	2.735	2.694	0.455	0.493	0.493	0.447
819																																																																																					2.150	2.342	1.772	1.884	2.637	2.571	2.738	2.702	0.447	0.484	0.484	0.439
820																																																																																					2.165	2.361	1.765	1.876	2.647	2.583	2.748	2.703	0.438	0.476	0.476	0.431
821																																																																																					2.179	2.377	1.758	1.869	2.664	2.592	2.755	2.708	0.431	0.468	0.468	0.424
822																																																																																					2.188	2.390	1.753	1.864	2.673	2.599	2.760	2.713	0.426	0.462	0.463	0.419
823																																																																																					2.196	2.400	1.750	1.861	2.679	2.604	2.765	2.714	0.423	0.458	0.459	0.416
824																																																																																					2.202	2.407	1.747	1.858	2.684	2.607	2.767	2.713	0.419	0.454	0.456	0.413
825																																																																																					2.210	2.417	1.742	1.853	2.690	2.610	2.770	2.714	0.415	0.450	0.451	0.409
826																																																																																					2.220	2.428	1.734	1.845	2.697	2.616	2.771	2.708	0.409	0.443	0.445	0.403
827																																																																																					2.231	2.443	1.725	1.835	2.706	2.621	2.771	2.707	0.402	0.435	0.437	0.396
828																																																																																					2.239	2.454	1.718	1.829	2.711	2.625	2.771	2.704	0.397	0.430	0.432	0.391
829																																																																																					2.246	2.461	1.712	1.822	2.713	2.627	2.771	2.701	0.393	0.425	0.428	0.388
830																																																																																					2.253	2.467	1.706	1.816	2.717	2.625	2.771	2.695	0.389	0.421	0.423	0.384
831																																																																																					2.259	2.477	1.697	1.806	2.720	2.629	2.767	2.689	0.384	0.415	0.417	0.378
832																																																																																					2.268	2.491	1.684	1.793	2.724	2.628	2.763	2.679	0.376	0.406	0.409	0.371
833																																																																																					2.274	2.498	1.674	1.782	2.726	2.628	2.757	2.674	0.370	0.400	0.403	0.365
834																																																																																					2.279	2.502	1.667	1.775	2.729	2.628	2.757	2.671	0.366	0.395	0.398	0.361
835																																																																																					2.283	2.509	1.660	1.768	2.730	2.626	2.753	2.665	0.362	0.391	0.395	0.358
836																																																																																					2.287	2.510	1.653	1.761	2.728	2.626	2.745	2.657	0.359	0.387	0.391	0.354
837																																																																																					2.289	2.515	1.645	1.752	2.727	2.620	2.740	2.644	0.355	0.382	0.386	0.350
838																																																																																					2.292	2.518	1.632	1.738	2.722	2.617	2.724	2.633	0.348	0.376	0.379	0.344
839																																																																																					2.296	2.519	1.620	1.726	2.713	2.608	2.719	2.618	0.343	0.370	0.373	0.339
840																																																																																					2.296	2.525	1.610	1.715	2.717	2.606	2.710	2.605	0.338	0.364	0.368	0.334
841																																																																																					2.296	2.523	1.601	1.706	2.717	2.596	2.700	2.597	0.334	0.360	0.364	0.331
842																																																																																					2.298	2.522	1.593	1.697	2.715	2.588	2.696	2.589	0.331	0.356	0.360	0.327
843																																																																																					2.297	2.527	1.582	1.685	2.707	2.583	2.678	2.573	0.326	0.351	0.356	0.323
844																																																																																					2.296	2.528	1.571	1.673	2.699	2.575	2.666	2.558	0.322	0.346	0.351	0.318
845																																																																																					2.292	2.518	1.559	1.662	2.683	2.566	2.652	2.538	0.317	0.341	0.346	0.314
846																																																																																					2.292	2.523	1.547	1.649	2.677	2.557	2.642	2.526	0.313	0.336	0.341	0.310
847																																																																																					2.291	2.519	1.536	1.638	2.670	2.547	2.625	2.510	0.309	0.332	0.337	0.306
848																																																																																					2.286	2.515	1.527	1.626	2.667	2.538	2.618	2.495	0.305	0.328	0.333	0.303
849																																																																																					2.284	2.513	1.516	1.616	2.653	2.528	2.600	2.474	0.301	0.324	0.329	0.299
850																																																																																					2.279	2.513	1.505	1.604	2.646	2.514	2.589	2.464	0.298	0.320	0.325	0.295
851																																																																																					2.277	2.499	1.494	1.592	2.637	2.505	2.571	2.444	0.294	0.316	0.321	0.291
852																																																																																					2.272	2.501	1.482	1.580	2.633	2.489	2.556	2.426	0.290	0.312	0.317	0.288
853																																																																																					2.267	2.490	1.471	1.569	2.612	2.476	2.537	2.409	0.287	0.308	0.314	0.285
854																																																																																					2.260	2.487	1.458	1.555	2.604	2.461	2.523	2.386	0.283	0.303	0.309	0.281
855																																																																																					2.253	2.478	1.447	1.544	2.592	2.452	2.509	2.369	0.280	0.300	0.305	0.278
856																																																																																					2.248	2.470	1.436	1.530	2.577	2.435	2.486	2.349	0.276	0.296	0.302	0.274
857																																																																																					2.239	2.464	1.423	1.518	2.565	2.418	2.471	2.331	0.273	0.292	0.298	0.271
858																																																																																					2.232	2.454	1.412	1.506	2.546	2.404	2.453	2.309	0.270	0.289	0.295	0.268
859																																																																																					2.224	2.447	1.401	1.494	2.535	2.389	2.431	2.294	0.267	0.286	0.292	0.265
860																																																																																					2.217	2.434	1.390	1.482	2.520	2.374	2.417	2.269	0.264	0.282	0.288	0.262
861																																																																																					2.207	2.428	1.379	1.470	2.508	2.359	2.396	2.251	0.261	0.279	0.285	0.259
862																																																																																					2.199	2.414	1.367	1.457	2.490	2.340	2.380	2.228	0.258	0.276	0.282	0.256
863																																																																																					2.189	2.405	1.355	1.446	2.477	2.324	2.357	2.209	0.255	0.272	0.279	0.254
864																																																																																					2.180	2.393	1.343	1.432	2.462	2.305	2.337	2.186	0.252	0.269	0.276	0.251
865																																																																																					2.169	2.383	1.332	1.421	2.445	2.287	2.320	2.168	0.250	0.267	0.273	0.249
866																																																																																					2.161	2.369	1.321	1.409	2.425	2.271	2.297	2.144	0.247	0.264	0.270	0.246
867																																																																																					2.148	2.356	1.310	1.397	2.408	2.254	2.276	2.124	0.245	0.261	0.267	0.244
868																																																																																					2.136	2.342	1.296	1.383	2.388	2.234	2.254	2.099	0.242	0.258	0.264	0.241
869																																																																																					2.124	2.329	1.285	1.371	2.369	2.214	2.231	2.076	0.239	0.255	0.262	0.239
870																																																																																					2.112	2.314	1.274	1.360	2.353	2.197	2.211	2.055	0.237	0.253	0.259	0.237
871																																																																																					2.102	2.302	1.263	1.348	2.334	2.177	2.192	2.034	0.235	0.251	0.257	0.235
872																																																																																					2.089	2.288	1.252	1.336	2.317	2.158	2.170	2.011	0.233	0.248	0.255	0.233
873																																																																																					2.079	2.272	1.241	1.324	2.298	2.140	2.147	1.989	0.231	0.246	0.252	0.231
874																																																																																					2.065	2.256	1.230	1.311	2.278	2.119	2.126	1.967	0.229	0.243	0.250	0.229
875																																																																																					2.049	2.238	1.217	1.298	2.255	2.097	2.100	1.941	0.226	0.240	0.247	0.226
876																																																																																					2.035	2.222	1.205	1.286	2.234	2.075	2.076	1.916	0.224	0.238	0.245	0.224
877																																																																																					2.020	2.203	1.192	1.272	2.213	2.053	2.052	1.891	0.221	0.235	0.242	0.222
878																																																																																					1.999	2.181	1.177	1.256	2.185	2.026	2.021	1.861	0.218	0.232	0.238	0.219
879																																																																																					1.978	2.156	1.161	1.238	2.157	1.997	1.989	1.830	0.215	0.229	0.235	0.215
880																																																																																					1.962	2.138	1.148	1.225	2.134	1.973	1.963	1.806	0.212	0.225	0.232	0.212
881																																																																																					1.952	2.126	1.140	1.217	2.119	1.959	1.949	1.790	0.210	0.223	0.230	0.211
882																																																																																					1.944	2.117	1.133	1.210	2.107	1.947	1.935	1.776	0.209	0.222	0.229	0.210
883																																																																																					1.937	2.108	1.127	1.204	2.096	1.935	1.924	1.763	0.208	0.220	0.228	0.209
884																																																																																					1.927	2.096	1.121	1.196	2.083	1.923	1.910	1.749	0.207	0.219	0.227	0.207
885																																																																																					1.912	2.078	1.110	1.185	2.061	1.901	1.887	1.725	0.205	0.217	0.225	0.206
886																																																																																					1.889	2.052	1.095	1.169	2.033	1.873	1.855	1.695	0.202	0.214	0.222	0.203
887																																																																																					1.871	2.029	1.082	1.155	2.005	1.847	1.828	1.670	0.200	0.211	0.219	0.200
888																																																																																					1.851	2.007	1.069	1.141	1.981	1.821	1.801	1.644	0.197	0.208	0.217	0.198
889																																																																																					1.833	1.987	1.057	1.129	1.957	1.798	1.777	1.620	0.195	0.206	0.215	0.196
890																																																																																					1.814	1.966	1.045	1.116	1.932	1.775	1.751	1.595	0.193	0.204	0.212	0.194
891																																																																																					1.796	1.943	1.033	1.103	1.908	1.750	1.726	1.571	0.191	0.202	0.210	0.192
892																																																																																					1.774	1.919	1.020	1.089	1.880	1.723	1.697	1.543	0.189	0.200	0.208	0.190
893																																																																																					1.754	1.895	1.008	1.076	1.854	1.698	1.670	1.517	0.187	0.198	0.206	0.188
894																																																																																					1.736	1.873	0.996	1.064	1.830	1.675	1.646	1.494	0.185	0.195	0.204	0.186
895																																																																																					1.723	1.859	0.988	1.055	1.813	1.658	1.629	1.477	0.184	0.194	0.203	0.185
896																																																																																					1.712	1.847	0.981	1.048	1.799	1.645	1.615	1.463	0.183	0.193	0.202	0.184
897																																																																																					1.700	1.831	0.974	1.040	1.783	1.629	1.599	1.447	0.182	0.192	0.200	0.183
898																																																																																					1.685	1.814	0.965	1.030	1.764	1.610	1.579	1.429	0.181	0.190	0.199	0.182
899																																																																																					1.662	1.788	0.952	1.017	1.735	1.583	1.550	1.402	0.179	0.188	0.197	0.180
900																																																																																					1.641	1.764	0.940	1.004	1.710	1.558	1.525	1.378	0.177	0.187	0.195	0.179
901																																																																																					1.617	1.737	0.927	0.990	1.681	1.530	1.495	1.350	0.175	0.185	0.193	0.177
902																																																																																					1.595	1.711	0.914	0.977	1.653	1.503	1.469	1.324	0.173	0.183	0.191	0.175
903																																																																																					1.576	1.689	0.904	0.965	1.630	1.482	1.445	1.303	0.172	0.181	0.190	0.174
904																																																																																					1.564	1.675	0.897	0.958	1.615	1.467	1.431	1.288	0.171	0.180	0.189	0.173
905																																																																																					1.554	1.663	0.891	0.951	1.601	1.454	1.417	1.275	0.171	0.179	0.188	0.172
906																																																																																					1.543	1.650	0.885	0.945	1.587	1.441	1.405	1.263	0.170	0.178	0.187	0.172
907																																																																																					1.529	1.634	0.877	0.937	1.569	1.424	1.388	1.246	0.169	0.177	0.186	0.171
908																																																																																					1.508	1.609	0.866	0.925	1.544	1.400	1.363	1.223	0.168	0.176	0.185	0.170
909																																																																																					1.484	1.583	0.854	0.912	1.516	1.375	1.336	1.200	0.166	0.174	0.183	0.169
910																																																																																					1.463	1.558	0.843	0.900	1.491	1.351	1.311	1.176	0.165	0.173	0.182	0.167
911																																																																																					1.446	1.538	0.834	0.890	1.469	1.331	1.291	1.157	0.164	0.172	0.181	0.166
912																																																																																					1.423	1.513	0.823	0.878	1.443	1.306	1.266	1.134	0.163	0.171	0.180	0.165
913																																																																																					1.400	1.486	0.811	0.865	1.417	1.280	1.240	1.111	0.161	0.170	0.178	0.164
914																																																																																					1.379	1.462	0.800	0.854	1.392	1.257	1.216	1.089	0.160	0.169	0.177	0.163
915																																																																																					1.364	1.445	0.792	0.846	1.375	1.241	1.201	1.075	0.160	0.168	0.176	0.162
916																																																																																					1.355	1.435	0.788	0.841	1.363	1.230	1.191	1.065	0.160	0.167	0.176	0.162
917																																																																																					1.347	1.426	0.783	0.836	1.354	1.221	1.182	1.056	0.160	0.167	0.176	0.162
918																																																																																					1.337	1.415	0.779	0.831	1.342	1.211	1.171	1.045	0.160	0.166	0.176	0.162
919																																																																																					1.324	1.398	0.772	0.824	1.325	1.195	1.156	1.031	0.160	0.166	0.176	0.162
920																																																																																					1.303	1.375	0.762	0.813	1.302	1.174	1.134	1.011	0.159	0.166	0.175	0.161
921																																																																																					1.283	1.352	0.752	0.803	1.279	1.153	1.113	0.993	0.158	0.165	0.175	0.161
922																																																																																					1.266	1.333	0.745	0.794	1.260	1.134	1.095	0.977	0.158	0.165	0.175	0.161
923																																																																																					1.250	1.314	0.737	0.786	1.241	1.117	1.077	0.961	0.158	0.165	0.174	0.161
924																																																																																					1.234	1.296	0.730	0.778	1.223	1.101	1.061	0.946	0.158	0.165	0.174	0.161
925																																																																																					1.215	1.275	0.721	0.769	1.203	1.081	1.043	0.928	0.158	0.165	0.175	0.161
926																																																																																					1.200	1.258	0.714	0.762	1.185	1.066	1.027	0.915	0.158	0.165	0.175	0.161
927																																																																																					1.184	1.240	0.707	0.754	1.168	1.050	1.011	0.901	0.158	0.165	0.175	0.162
928																																																																																					1.169	1.223	0.701	0.747	1.151	1.033	0.996	0.886	0.159	0.166	0.176	0.162
929																																																																																					1.155	1.207	0.694	0.740	1.135	1.020	0.982	0.875	0.159	0.166	0.177	0.163
930																																																																																					1.140	1.190	0.688	0.733	1.119	1.005	0.967	0.861	0.160	0.167	0.178	0.163
931																																																																																					1.125	1.174	0.682	0.726	1.104	0.991	0.954	0.849	0.161	0.168	0.178	0.164
932																																																																																					1.112	1.159	0.676	0.720	1.089	0.977	0.941	0.837	0.161	0.168	0.179	0.165
933																																																																																					1.097	1.142	0.670	0.714	1.072	0.962	0.926	0.825	0.162	0.169	0.181	0.166
934																																																																																					1.080	1.123	0.663	0.706	1.056	0.947	0.911	0.811	0.163	0.171	0.182	0.167
935																																																																																					1.066	1.108	0.658	0.700	1.040	0.933	0.897	0.800	0.164	0.172	0.183	0.168
936																																																																																					1.053	1.094	0.652	0.695	1.027	0.921	0.886	0.789	0.166	0.173	0.185	0.169
937																																																																																					1.043	1.082	0.648	0.690	1.015	0.910	0.876	0.780	0.167	0.174	0.186	0.171
938																																																																																					1.032	1.071	0.644	0.685	1.004	0.900	0.867	0.772	0.168	0.175	0.188	0.172
939																																																																																					1.022	1.058	0.640	0.681	0.992	0.890	0.857	0.763	0.169	0.176	0.189	0.173
940																																																																																					1.011	1.046	0.636	0.676	0.982	0.880	0.848	0.755	0.171	0.178	0.191	0.175
941																																																																																					0.999	1.033	0.632	0.672	0.970	0.869	0.837	0.746	0.172	0.180	0.193	0.176
942																																																																																					0.988	1.020	0.628	0.667	0.957	0.858	0.827	0.738	0.174	0.182	0.195	0.178
943																																																																																					0.975	1.006	0.623	0.662	0.945	0.847	0.816	0.728	0.176	0.184	0.198	0.181
944																																																																																					0.964	0.994	0.620	0.658	0.934	0.837	0.807	0.721	0.178	0.186	0.201	0.183
945																																																																																					0.954	0.984	0.617	0.655	0.924	0.829	0.799	0.714	0.181	0.189	0.203	0.185
946																																																																																					0.945	0.974	0.614	0.652	0.914	0.820	0.792	0.708	0.183	0.192	0.207	0.188
947																																																																																					0.935	0.963	0.611	0.649	0.905	0.812	0.783	0.701	0.186	0.195	0.210	0.191
948																																																																																					0.926	0.952	0.609	0.647	0.896	0.804	0.776	0.696	0.190	0.199	0.215	0.195
949																																																																																					0.918	0.943	0.608	0.645	0.888	0.797	0.770	0.691	0.194	0.203	0.219	0.199
950																																																																																					0.910	0.935	0.606	0.643	0.881	0.791	0.765	0.687	0.198	0.206	0.224	0.203
951																																																																																					0.904	0.928	0.606	0.642	0.875	0.786	0.761	0.683	0.202	0.211	0.229	0.207
952																																																																																					0.899	0.923	0.605	0.642	0.870	0.782	0.758	0.681	0.205	0.215	0.233	0.211
953																																																																																					0.893	0.916	0.605	0.641	0.865	0.777	0.754	0.678	0.209	0.219	0.238	0.215
954																																																																																					0.886	0.908	0.605	0.640	0.859	0.773	0.750	0.675	0.214	0.224	0.243	0.220
955																																																																																					0.879	0.901	0.604	0.640	0.853	0.768	0.745	0.672	0.219	0.229	0.249	0.225
956																																																																																					0.872	0.893	0.604	0.639	0.846	0.762	0.741	0.669	0.223	0.234	0.254	0.229
957																																																																																					0.864	0.885	0.602	0.637	0.840	0.756	0.736	0.665	0.227	0.238	0.259	0.233
958																																																																																					0.857	0.877	0.601	0.635	0.833	0.751	0.731	0.661	0.230	0.241	0.263	0.237
959																																																																																					0.849	0.868	0.598	0.633	0.825	0.744	0.725	0.657	0.232	0.244	0.265	0.239
960																																																																																					0.840	0.859	0.596	0.630	0.817	0.737	0.718	0.651	0.235	0.246	0.268	0.242
961																																																																																					0.831	0.850	0.593	0.627	0.809	0.730	0.712	0.646	0.237	0.248	0.271	0.243
962																																																																																					0.822	0.840	0.590	0.623	0.800	0.723	0.705	0.640	0.238	0.249	0.272	0.245
963																																																																																					0.814	0.831	0.586	0.619	0.791	0.715	0.698	0.635	0.238	0.251	0.273	0.245
964																																																																																					0.804	0.821	0.582	0.615	0.782	0.708	0.691	0.628	0.239	0.251	0.274	0.246
965																																																																																					0.795	0.811	0.578	0.611	0.774	0.700	0.683	0.623	0.240	0.252	0.274	0.247
966																																																																																					0.785	0.800	0.574	0.606	0.764	0.691	0.676	0.616	0.240	0.252	0.275	0.247
967																																																																																					0.775	0.790	0.569	0.601	0.755	0.683	0.668	0.609	0.240	0.252	0.275	0.247
968																																																																																					0.766	0.781	0.565	0.597	0.747	0.676	0.661	0.604	0.240	0.252	0.275	0.247
969																																																																																					0.758	0.773	0.561	0.593	0.739	0.669	0.655	0.598	0.240	0.252	0.275	0.247
970																																																																																					0.750	0.764	0.558	0.588	0.731	0.662	0.649	0.592	0.240	0.252	0.275	0.247
971																																																																																					0.741	0.754	0.553	0.584	0.723	0.654	0.642	0.586	0.240	0.252	0.275	0.247
972																																																																																					0.732	0.746	0.549	0.579	0.714	0.647	0.635	0.580	0.240	0.252	0.275	0.247
973																																																																																					0.724	0.736	0.545	0.575	0.706	0.640	0.628	0.574	0.240	0.252	0.274	0.247
974																																																																																					0.715	0.726	0.540	0.570	0.697	0.632	0.621	0.568	0.239	0.251	0.274	0.246
975																																																																																					0.702	0.714	0.534	0.564	0.686	0.622	0.611	0.560	0.238	0.251	0.273	0.246
976																																																																																					0.691	0.702	0.528	0.558	0.675	0.613	0.602	0.552	0.237	0.250	0.272	0.245
977																																																																																					0.681	0.692	0.523	0.552	0.666	0.605	0.594	0.546	0.236	0.248	0.271	0.244
978																																																																																					0.674	0.685	0.520	0.548	0.660	0.599	0.590	0.542	0.236	0.248	0.270	0.243
979																																																																																					0.670	0.680	0.517	0.545	0.655	0.595	0.586	0.538	0.236	0.247	0.270	0.243
980																																																																																					0.667	0.677	0.515	0.543	0.652	0.592	0.584	0.535	0.236	0.247	0.270	0.243
981																																																																																					0.663	0.672	0.513	0.540	0.647	0.588	0.581	0.532	0.236	0.247	0.270	0.242
982																																																																																					0.657	0.666	0.509	0.536	0.641	0.583	0.576	0.527	0.235	0.246	0.269	0.242
983																																																																																					0.648	0.656	0.504	0.531	0.632	0.575	0.568	0.521	0.234	0.245	0.268	0.241
984																																																																																					0.635	0.644	0.498	0.524	0.621	0.565	0.558	0.513	0.232	0.243	0.265	0.239
985																																																																																					0.623	0.631	0.490	0.516	0.610	0.554	0.548	0.504	0.229	0.240	0.263	0.236
986																																																																																					0.613	0.622	0.485	0.511	0.601	0.547	0.541	0.498	0.228	0.239	0.261	0.235
987																																																																																					0.602	0.610	0.479	0.505	0.591	0.538	0.532	0.490	0.226	0.237	0.258	0.233
988																																																																																					0.592	0.600	0.473	0.498	0.581	0.530	0.523	0.483	0.224	0.235	0.256	0.231
989																																																																																					0.581	0.589	0.467	0.492	0.571	0.521	0.514	0.475	0.221	0.233	0.253	0.229
990																																																																																					0.573	0.580	0.461	0.486	0.563	0.513	0.507	0.469	0.219	0.230	0.251	0.227
991																																																																																					0.567	0.575	0.458	0.482	0.558	0.509	0.503	0.466	0.218	0.229	0.250	0.226
992																																																																																					0.564	0.571	0.455	0.479	0.554	0.505	0.500	0.462	0.218	0.228	0.249	0.224
993																																																																																					0.561	0.568	0.453	0.477	0.551	0.503	0.498	0.460	0.218	0.227	0.249	0.224
994																																																																																					0.558	0.564	0.451	0.474	0.547	0.500	0.495	0.457	0.217	0.227	0.248	0.223
995																																																																																					0.552	0.558	0.447	0.470	0.541	0.494	0.491	0.452	0.216	0.225	0.246	0.222
996																																																																																					0.544	0.550	0.442	0.465	0.534	0.488	0.484	0.446	0.214	0.223	0.244	0.220
997																																																																																					0.534	0.540	0.436	0.458	0.524	0.479	0.475	0.439	0.211	0.221	0.241	0.217
998																																																																																					0.525	0.530	0.430	0.452	0.515	0.471	0.467	0.432	0.209	0.218	0.238	0.215
999																																																																																					0.515	0.521	0.424	0.446	0.507	0.464	0.460	0.426	0.206	0.216	0.235	0.212

结果
	1	2	3	4	5	6	7	8	9	10	11	12
A	?????	?????	?????	?????	?????	?????	?????	?????	?????	?????	?????	?????	Mean Max OD [Spectrum]
B	?????	?????	?????	?????	?????	?????	?????	?????	?????	?????	?????	?????	Mean Max OD [Spectrum]
C	?????	?????	?????	?????	?????	?????	?????	?????	?????	?????	?????	?????	Mean Max OD [Spectrum]
D	?????	?????	?????	?????	?????	?????	?????	?????	?????	?????	?????	?????	Mean Max OD [Spectrum]
E	?????	?????	?????	?????	?????	?????	?????	?????	?????	?????	?????	?????	Mean Max OD [Spectrum]
F	?????	?????	?????	?????	?????	?????	?????	?????	?????	?????	?????	?????	Mean Max OD [Spectrum]
G	?????	?????	?????	?????	?????	?????	?????	?????	?????	?????	?????	?????	Mean Max OD [Spectrum]
H	2.298	2.528	1.816	1.926	2.730	2.629	2.771	2.714	1.442	1.563	1.699	1.477	Mean Max OD [Spectrum]

