

软件版本	3.11.19



实验文件路径:	
方案文件路径:	



板编号	板 1
日期	2023/4/9
时间	9:38:45
检测仪类型:	Epoch 2
检测仪序列号:	2205170B
检测类型	检测仪

程序详细信息

板类型	96 WELL PLATE
完成后弹出板	
检测	吸收光 光谱
	H1..H12
	开始: 400 nm,  停止: 999 nm,  步骤: 1 nm
	检测前校准
	检测速度: 正常,  延迟: 100 msec,  测量值/数据点: 8

Spectrum

波长	A1	A2	A3	A4	A5	A6	A7	A8	A9	A10	A11	A12	B1	B2	B3	B4	B5	B6	B7	B8	B9	B10	B11	B12	C1	C2	C3	C4	C5	C6	C7	C8	C9	C10	C11	C12	D1	D2	D3	D4	D5	D6	D7	D8	D9	D10	D11	D12	E1	E2	E3	E4	E5	E6	E7	E8	E9	E10	E11	E12	F1	F2	F3	F4	F5	F6	F7	F8	F9	F10	F11	F12	G1	G2	G3	G4	G5	G6	G7	G8	G9	G10	G11	G12	H1	H2	H3	H4	H5	H6	H7	H8	H9	H10	H11	H12
400																																																																																					0.540	0.572	0.579	0.584	0.583	0.538	0.638	0.536	0.580	0.515	0.567	0.595
401																																																																																					0.539	0.571	0.578	0.583	0.582	0.536	0.637	0.535	0.579	0.514	0.566	0.594
402																																																																																					0.538	0.569	0.576	0.582	0.580	0.535	0.635	0.533	0.577	0.512	0.564	0.592
403																																																																																					0.536	0.568	0.575	0.580	0.579	0.533	0.633	0.531	0.576	0.511	0.563	0.591
404																																																																																					0.535	0.566	0.573	0.578	0.577	0.532	0.632	0.530	0.574	0.510	0.561	0.589
405																																																																																					0.534	0.565	0.572	0.577	0.576	0.531	0.630	0.529	0.573	0.509	0.560	0.588
406																																																																																					0.533	0.564	0.571	0.576	0.575	0.530	0.629	0.528	0.571	0.507	0.559	0.587
407																																																																																					0.531	0.563	0.569	0.574	0.573	0.528	0.627	0.527	0.570	0.506	0.557	0.585
408																																																																																					0.530	0.561	0.568	0.573	0.572	0.527	0.626	0.525	0.569	0.505	0.556	0.584
409																																																																																					0.529	0.560	0.567	0.572	0.571	0.526	0.624	0.524	0.567	0.504	0.555	0.583
410																																																																																					0.528	0.558	0.565	0.570	0.569	0.525	0.623	0.523	0.566	0.502	0.553	0.581
411																																																																																					0.526	0.557	0.564	0.569	0.568	0.523	0.621	0.522	0.565	0.501	0.552	0.580
412																																																																																					0.525	0.556	0.563	0.568	0.567	0.522	0.620	0.520	0.563	0.500	0.551	0.579
413																																																																																					0.524	0.554	0.561	0.566	0.565	0.521	0.618	0.519	0.562	0.499	0.550	0.577
414																																																																																					0.523	0.553	0.560	0.565	0.564	0.520	0.617	0.518	0.561	0.498	0.548	0.576
415																																																																																					0.521	0.552	0.559	0.564	0.563	0.519	0.615	0.517	0.559	0.497	0.547	0.575
416																																																																																					0.520	0.551	0.558	0.563	0.562	0.518	0.614	0.516	0.558	0.496	0.546	0.573
417																																																																																					0.519	0.549	0.556	0.561	0.560	0.516	0.613	0.514	0.557	0.494	0.545	0.572
418																																																																																					0.518	0.548	0.555	0.560	0.559	0.515	0.611	0.513	0.556	0.493	0.543	0.571
419																																																																																					0.517	0.547	0.554	0.559	0.558	0.514	0.610	0.512	0.555	0.492	0.542	0.570
420																																																																																					0.516	0.546	0.553	0.558	0.556	0.513	0.609	0.511	0.553	0.491	0.541	0.569
421																																																																																					0.515	0.545	0.552	0.556	0.555	0.512	0.607	0.510	0.552	0.490	0.540	0.567
422																																																																																					0.514	0.544	0.551	0.555	0.554	0.511	0.606	0.509	0.551	0.489	0.539	0.566
423																																																																																					0.513	0.543	0.550	0.554	0.553	0.510	0.605	0.508	0.550	0.489	0.538	0.565
424																																																																																					0.512	0.542	0.549	0.553	0.552	0.509	0.604	0.507	0.549	0.488	0.537	0.564
425																																																																																					0.511	0.541	0.548	0.552	0.551	0.508	0.603	0.506	0.548	0.487	0.536	0.563
426																																																																																					0.510	0.540	0.547	0.551	0.550	0.507	0.602	0.505	0.547	0.486	0.535	0.562
427																																																																																					0.509	0.539	0.546	0.550	0.549	0.506	0.601	0.505	0.546	0.485	0.534	0.561
428																																																																																					0.508	0.538	0.545	0.549	0.548	0.505	0.599	0.504	0.545	0.484	0.533	0.560
429																																																																																					0.507	0.537	0.544	0.548	0.547	0.504	0.598	0.503	0.544	0.483	0.532	0.559
430																																																																																					0.506	0.536	0.543	0.547	0.546	0.503	0.597	0.501	0.543	0.482	0.531	0.558
431																																																																																					0.505	0.535	0.542	0.546	0.545	0.502	0.596	0.501	0.542	0.482	0.530	0.557
432																																																																																					0.504	0.534	0.541	0.545	0.544	0.501	0.595	0.500	0.541	0.481	0.529	0.556
433																																																																																					0.503	0.533	0.540	0.544	0.543	0.500	0.594	0.499	0.540	0.480	0.528	0.555
434																																																																																					0.502	0.532	0.539	0.543	0.542	0.499	0.593	0.498	0.539	0.479	0.527	0.554
435																																																																																					0.501	0.531	0.538	0.542	0.541	0.498	0.592	0.497	0.538	0.478	0.526	0.553
436																																																																																					0.501	0.530	0.537	0.541	0.540	0.498	0.591	0.496	0.538	0.478	0.526	0.552
437																																																																																					0.500	0.529	0.536	0.540	0.539	0.497	0.590	0.495	0.536	0.477	0.525	0.551
438																																																																																					0.499	0.528	0.535	0.539	0.538	0.496	0.588	0.494	0.536	0.476	0.524	0.550
439																																																																																					0.498	0.527	0.534	0.538	0.537	0.495	0.587	0.494	0.535	0.475	0.523	0.549
440																																																																																					0.497	0.526	0.533	0.537	0.536	0.494	0.587	0.493	0.534	0.474	0.522	0.548
441																																																																																					0.497	0.526	0.533	0.537	0.536	0.493	0.586	0.492	0.533	0.474	0.521	0.548
442																																																																																					0.496	0.525	0.532	0.536	0.535	0.493	0.585	0.491	0.532	0.473	0.521	0.547
443																																																																																					0.495	0.524	0.531	0.535	0.534	0.492	0.584	0.491	0.532	0.473	0.520	0.546
444																																																																																					0.494	0.523	0.530	0.534	0.533	0.491	0.583	0.490	0.531	0.472	0.519	0.545
445																																																																																					0.493	0.522	0.529	0.533	0.532	0.490	0.582	0.489	0.530	0.471	0.518	0.544
446																																																																																					0.493	0.522	0.529	0.533	0.532	0.490	0.582	0.489	0.529	0.471	0.518	0.544
447																																																																																					0.492	0.521	0.528	0.532	0.531	0.489	0.581	0.488	0.529	0.470	0.517	0.543
448																																																																																					0.492	0.520	0.527	0.531	0.530	0.489	0.580	0.487	0.528	0.469	0.516	0.543
449																																																																																					0.491	0.520	0.527	0.531	0.530	0.488	0.579	0.487	0.528	0.469	0.516	0.542
450																																																																																					0.490	0.519	0.526	0.530	0.529	0.487	0.578	0.486	0.527	0.469	0.515	0.541
451																																																																																					0.490	0.518	0.525	0.529	0.528	0.487	0.578	0.486	0.526	0.468	0.515	0.541
452																																																																																					0.489	0.518	0.525	0.529	0.528	0.486	0.577	0.485	0.526	0.468	0.514	0.540
453																																																																																					0.489	0.517	0.524	0.528	0.527	0.486	0.576	0.485	0.525	0.467	0.514	0.540
454																																																																																					0.488	0.517	0.524	0.528	0.527	0.485	0.576	0.484	0.525	0.467	0.513	0.539
455																																																																																					0.488	0.516	0.523	0.527	0.526	0.485	0.575	0.484	0.524	0.466	0.513	0.539
456																																																																																					0.487	0.516	0.523	0.527	0.526	0.484	0.575	0.483	0.524	0.466	0.512	0.538
457																																																																																					0.487	0.515	0.522	0.526	0.525	0.484	0.574	0.483	0.524	0.466	0.512	0.538
458																																																																																					0.486	0.515	0.522	0.526	0.525	0.483	0.574	0.482	0.523	0.465	0.512	0.537
459																																																																																					0.486	0.515	0.522	0.526	0.525	0.483	0.574	0.482	0.523	0.465	0.511	0.537
460																																																																																					0.486	0.514	0.521	0.525	0.524	0.483	0.573	0.482	0.523	0.465	0.511	0.537
461																																																																																					0.486	0.514	0.521	0.525	0.524	0.483	0.573	0.482	0.523	0.465	0.511	0.537
462																																																																																					0.486	0.514	0.521	0.525	0.524	0.483	0.573	0.482	0.523	0.465	0.511	0.537
463																																																																																					0.486	0.514	0.521	0.525	0.524	0.482	0.573	0.482	0.523	0.465	0.511	0.537
464																																																																																					0.485	0.514	0.521	0.525	0.524	0.482	0.573	0.482	0.523	0.465	0.511	0.537
465																																																																																					0.485	0.514	0.521	0.525	0.524	0.482	0.573	0.482	0.523	0.465	0.511	0.537
466																																																																																					0.485	0.514	0.521	0.525	0.524	0.482	0.573	0.482	0.523	0.465	0.511	0.537
467																																																																																					0.486	0.514	0.522	0.526	0.525	0.482	0.573	0.482	0.523	0.465	0.512	0.537
468																																																																																					0.486	0.515	0.522	0.526	0.525	0.483	0.574	0.482	0.523	0.466	0.512	0.538
469																																																																																					0.486	0.515	0.522	0.526	0.525	0.483	0.574	0.483	0.524	0.466	0.513	0.538
470																																																																																					0.486	0.515	0.523	0.527	0.526	0.483	0.575	0.483	0.524	0.467	0.513	0.539
471																																																																																					0.487	0.516	0.523	0.527	0.526	0.484	0.575	0.484	0.525	0.467	0.514	0.539
472																																																																																					0.487	0.517	0.524	0.528	0.527	0.484	0.576	0.484	0.526	0.468	0.514	0.540
473																																																																																					0.488	0.517	0.525	0.529	0.528	0.485	0.577	0.485	0.526	0.468	0.515	0.541
474																																																																																					0.489	0.518	0.526	0.530	0.529	0.486	0.578	0.486	0.528	0.469	0.516	0.542
475																																																																																					0.490	0.519	0.527	0.531	0.530	0.487	0.579	0.487	0.529	0.470	0.517	0.543
476																																																																																					0.491	0.521	0.528	0.532	0.531	0.488	0.580	0.488	0.530	0.471	0.519	0.545
477																																																																																					0.492	0.522	0.529	0.534	0.533	0.489	0.582	0.490	0.532	0.473	0.520	0.546
478																																																																																					0.493	0.523	0.531	0.535	0.534	0.490	0.583	0.491	0.533	0.474	0.522	0.548
479																																																																																					0.495	0.525	0.533	0.537	0.536	0.492	0.585	0.493	0.535	0.476	0.524	0.550
480																																																																																					0.497	0.527	0.535	0.539	0.538	0.493	0.587	0.494	0.537	0.477	0.526	0.552
481																																																																																					0.499	0.530	0.537	0.542	0.541	0.496	0.590	0.497	0.540	0.480	0.528	0.555
482																																																																																					0.501	0.532	0.540	0.544	0.544	0.498	0.593	0.499	0.543	0.482	0.531	0.558
483																																																																																					0.503	0.535	0.542	0.547	0.546	0.500	0.596	0.501	0.545	0.484	0.533	0.560
484																																																																																					0.505	0.537	0.544	0.549	0.548	0.502	0.598	0.503	0.547	0.486	0.536	0.562
485																																																																																					0.507	0.539	0.547	0.551	0.550	0.504	0.600	0.505	0.549	0.488	0.538	0.565
486																																																																																					0.510	0.542	0.550	0.554	0.553	0.507	0.603	0.508	0.552	0.491	0.541	0.568
487																																																																																					0.513	0.546	0.554	0.558	0.557	0.510	0.608	0.512	0.556	0.494	0.545	0.572
488																																																																																					0.517	0.549	0.557	0.562	0.561	0.513	0.611	0.515	0.559	0.497	0.548	0.575
489																																																																																					0.520	0.553	0.561	0.565	0.564	0.516	0.615	0.518	0.563	0.500	0.552	0.579
490																																																																																					0.524	0.557	0.565	0.569	0.569	0.520	0.620	0.522	0.567	0.504	0.556	0.583
491																																																																																					0.528	0.562	0.570	0.575	0.574	0.524	0.625	0.527	0.572	0.509	0.561	0.589
492																																																																																					0.531	0.566	0.574	0.578	0.578	0.527	0.629	0.530	0.576	0.512	0.565	0.592
493																																																																																					0.535	0.570	0.578	0.583	0.582	0.531	0.633	0.534	0.580	0.515	0.569	0.597
494																																																																																					0.539	0.575	0.583	0.587	0.587	0.535	0.638	0.538	0.585	0.520	0.573	0.601
495																																																																																					0.545	0.581	0.589	0.594	0.593	0.540	0.645	0.543	0.591	0.525	0.579	0.608
496																																																																																					0.550	0.587	0.595	0.600	0.599	0.545	0.651	0.549	0.596	0.530	0.585	0.614
497																																																																																					0.555	0.593	0.601	0.606	0.605	0.551	0.657	0.554	0.602	0.535	0.591	0.620
498																																																																																					0.559	0.597	0.606	0.610	0.609	0.555	0.662	0.558	0.606	0.539	0.595	0.624
499																																																																																					0.564	0.602	0.610	0.615	0.614	0.558	0.667	0.563	0.611	0.543	0.600	0.629
500																																																																																					0.568	0.607	0.616	0.620	0.619	0.563	0.672	0.567	0.616	0.547	0.605	0.634
501																																																																																					0.573	0.612	0.621	0.625	0.624	0.568	0.678	0.572	0.621	0.552	0.610	0.640
502																																																																																					0.578	0.618	0.626	0.631	0.629	0.572	0.684	0.577	0.626	0.557	0.615	0.645
503																																																																																					0.582	0.623	0.631	0.636	0.634	0.576	0.689	0.581	0.631	0.561	0.620	0.650
504																																																																																					0.587	0.628	0.637	0.641	0.640	0.581	0.694	0.586	0.636	0.566	0.625	0.655
505																																																																																					0.591	0.632	0.641	0.645	0.644	0.585	0.699	0.590	0.641	0.570	0.629	0.660
506																																																																																					0.595	0.637	0.646	0.650	0.649	0.588	0.704	0.594	0.645	0.573	0.634	0.665
507																																																																																					0.598	0.641	0.650	0.654	0.653	0.592	0.708	0.597	0.649	0.577	0.638	0.669
508																																																																																					0.602	0.645	0.654	0.658	0.656	0.595	0.712	0.600	0.653	0.580	0.641	0.673
509																																																																																					0.605	0.649	0.657	0.662	0.660	0.598	0.715	0.603	0.656	0.583	0.645	0.676
510																																																																																					0.607	0.652	0.661	0.665	0.663	0.601	0.719	0.606	0.660	0.586	0.648	0.680
511																																																																																					0.610	0.655	0.664	0.668	0.666	0.603	0.721	0.609	0.662	0.589	0.651	0.682
512																																																																																					0.612	0.657	0.666	0.670	0.668	0.605	0.724	0.611	0.664	0.591	0.653	0.685
513																																																																																					0.613	0.659	0.668	0.672	0.670	0.606	0.725	0.612	0.666	0.592	0.655	0.687
514																																																																																					0.614	0.661	0.670	0.674	0.672	0.607	0.727	0.613	0.668	0.594	0.657	0.688
515																																																																																					0.615	0.662	0.671	0.675	0.673	0.608	0.728	0.614	0.669	0.595	0.658	0.689
516																																																																																					0.616	0.663	0.672	0.676	0.674	0.608	0.729	0.615	0.670	0.595	0.659	0.690
517																																																																																					0.616	0.663	0.672	0.676	0.674	0.608	0.729	0.615	0.670	0.596	0.659	0.691
518																																																																																					0.616	0.663	0.672	0.676	0.674	0.608	0.729	0.615	0.670	0.596	0.659	0.691
519																																																																																					0.615	0.663	0.672	0.676	0.674	0.608	0.728	0.614	0.670	0.596	0.659	0.691
520																																																																																					0.615	0.663	0.672	0.676	0.673	0.607	0.727	0.614	0.670	0.595	0.658	0.690
521																																																																																					0.614	0.662	0.671	0.675	0.672	0.606	0.726	0.613	0.669	0.595	0.658	0.689
522																																																																																					0.612	0.661	0.670	0.674	0.671	0.605	0.725	0.612	0.668	0.593	0.656	0.688
523																																																																																					0.611	0.659	0.669	0.672	0.670	0.604	0.723	0.610	0.666	0.592	0.655	0.686
524																																																																																					0.609	0.657	0.667	0.670	0.668	0.602	0.721	0.608	0.664	0.590	0.653	0.684
525																																																																																					0.606	0.655	0.665	0.668	0.665	0.600	0.719	0.606	0.662	0.588	0.651	0.682
526																																																																																					0.604	0.653	0.663	0.666	0.663	0.597	0.716	0.604	0.660	0.586	0.648	0.680
527																																																																																					0.601	0.650	0.660	0.663	0.660	0.595	0.713	0.601	0.657	0.584	0.646	0.677
528																																																																																					0.599	0.648	0.658	0.661	0.658	0.593	0.710	0.599	0.655	0.582	0.644	0.674
529																																																																																					0.597	0.646	0.656	0.659	0.656	0.591	0.707	0.597	0.652	0.580	0.641	0.672
530																																																																																					0.595	0.643	0.654	0.656	0.653	0.589	0.705	0.595	0.650	0.577	0.639	0.669
531																																																																																					0.592	0.640	0.650	0.653	0.650	0.586	0.701	0.592	0.647	0.574	0.635	0.665
532																																																																																					0.587	0.636	0.646	0.649	0.646	0.582	0.696	0.587	0.642	0.571	0.631	0.661
533																																																																																					0.584	0.632	0.642	0.645	0.642	0.578	0.692	0.584	0.638	0.567	0.627	0.657
534																																																																																					0.580	0.629	0.639	0.641	0.638	0.575	0.688	0.580	0.635	0.564	0.624	0.653
535																																																																																					0.576	0.625	0.635	0.637	0.634	0.571	0.683	0.576	0.630	0.560	0.619	0.648
536																																																																																					0.572	0.620	0.630	0.632	0.629	0.567	0.678	0.572	0.626	0.556	0.615	0.644
537																																																																																					0.568	0.616	0.626	0.628	0.625	0.563	0.673	0.568	0.621	0.551	0.610	0.638
538																																																																																					0.563	0.611	0.621	0.622	0.619	0.558	0.668	0.563	0.616	0.547	0.605	0.633
539																																																																																					0.558	0.606	0.616	0.618	0.614	0.554	0.662	0.558	0.611	0.542	0.600	0.627
540																																																																																					0.553	0.600	0.610	0.612	0.608	0.549	0.656	0.553	0.605	0.537	0.594	0.621
541																																																																																					0.548	0.595	0.605	0.607	0.603	0.544	0.650	0.548	0.600	0.532	0.588	0.616
542																																																																																					0.544	0.590	0.600	0.602	0.598	0.540	0.645	0.544	0.595	0.528	0.584	0.611
543																																																																																					0.540	0.585	0.596	0.597	0.593	0.536	0.640	0.539	0.590	0.523	0.579	0.605
544																																																																																					0.534	0.579	0.590	0.591	0.587	0.531	0.634	0.534	0.584	0.518	0.572	0.599
545																																																																																					0.528	0.573	0.583	0.584	0.580	0.525	0.626	0.527	0.577	0.512	0.566	0.592
546																																																																																					0.522	0.566	0.576	0.577	0.574	0.519	0.620	0.522	0.570	0.506	0.559	0.585
547																																																																																					0.516	0.560	0.570	0.571	0.567	0.514	0.612	0.516	0.564	0.500	0.553	0.578
548																																																																																					0.510	0.553	0.563	0.564	0.560	0.508	0.606	0.510	0.557	0.494	0.546	0.571
549																																																																																					0.505	0.547	0.557	0.558	0.554	0.503	0.599	0.504	0.551	0.488	0.540	0.565
550																																																																																					0.498	0.539	0.550	0.550	0.547	0.496	0.591	0.498	0.544	0.482	0.532	0.557
551																																																																																					0.492	0.533	0.543	0.544	0.540	0.490	0.584	0.491	0.537	0.476	0.526	0.550
552																																																																																					0.485	0.525	0.535	0.536	0.532	0.484	0.576	0.484	0.529	0.469	0.518	0.542
553																																																																																					0.479	0.518	0.528	0.528	0.525	0.478	0.568	0.478	0.522	0.462	0.511	0.534
554																																																																																					0.472	0.510	0.520	0.521	0.517	0.471	0.560	0.471	0.515	0.456	0.503	0.526
555																																																																																					0.466	0.504	0.514	0.514	0.511	0.465	0.553	0.465	0.508	0.450	0.497	0.519
556																																																																																					0.459	0.496	0.505	0.506	0.502	0.458	0.545	0.458	0.500	0.443	0.489	0.511
557																																																																																					0.453	0.488	0.498	0.499	0.495	0.452	0.537	0.451	0.493	0.436	0.482	0.503
558																																																																																					0.446	0.480	0.490	0.490	0.487	0.445	0.528	0.444	0.484	0.429	0.473	0.495
559																																																																																					0.438	0.472	0.482	0.482	0.478	0.438	0.519	0.437	0.477	0.422	0.465	0.486
560																																																																																					0.431	0.464	0.473	0.474	0.470	0.431	0.511	0.429	0.469	0.414	0.457	0.478
561																																																																																					0.425	0.457	0.466	0.466	0.463	0.424	0.503	0.422	0.461	0.408	0.450	0.470
562																																																																																					0.419	0.450	0.459	0.459	0.456	0.418	0.495	0.416	0.454	0.401	0.443	0.463
563																																																																																					0.414	0.444	0.453	0.453	0.450	0.413	0.489	0.411	0.448	0.397	0.437	0.457
564																																																																																					0.407	0.437	0.445	0.446	0.443	0.406	0.481	0.404	0.441	0.390	0.429	0.449
565																																																																																					0.401	0.429	0.437	0.438	0.434	0.400	0.473	0.397	0.433	0.383	0.422	0.440
566																																																																																					0.395	0.422	0.430	0.431	0.428	0.393	0.465	0.391	0.426	0.377	0.415	0.433
567																																																																																					0.389	0.416	0.424	0.424	0.421	0.388	0.458	0.384	0.420	0.371	0.408	0.426
568																																																																																					0.384	0.409	0.417	0.417	0.414	0.382	0.451	0.379	0.413	0.365	0.402	0.420
569																																																																																					0.377	0.403	0.410	0.410	0.407	0.376	0.444	0.372	0.406	0.359	0.395	0.412
570																																																																																					0.372	0.396	0.404	0.404	0.401	0.370	0.437	0.366	0.400	0.353	0.389	0.406
571																																																																																					0.366	0.390	0.397	0.397	0.394	0.364	0.429	0.359	0.393	0.347	0.382	0.398
572																																																																																					0.360	0.384	0.390	0.390	0.387	0.358	0.422	0.354	0.387	0.341	0.375	0.392
573																																																																																					0.356	0.378	0.384	0.384	0.381	0.353	0.416	0.348	0.381	0.336	0.369	0.385
574																																																																																					0.351	0.372	0.378	0.378	0.375	0.347	0.409	0.343	0.375	0.331	0.363	0.379
575																																																																																					0.345	0.366	0.372	0.372	0.369	0.342	0.402	0.337	0.369	0.326	0.357	0.373
576																																																																																					0.341	0.361	0.367	0.367	0.364	0.337	0.397	0.333	0.364	0.321	0.352	0.367
577																																																																																					0.337	0.356	0.362	0.361	0.359	0.333	0.391	0.328	0.359	0.316	0.347	0.362
578																																																																																					0.332	0.351	0.356	0.356	0.353	0.327	0.384	0.322	0.353	0.311	0.341	0.355
579																																																																																					0.327	0.345	0.350	0.350	0.347	0.322	0.378	0.316	0.347	0.305	0.335	0.349
580																																																																																					0.322	0.340	0.344	0.344	0.341	0.316	0.372	0.311	0.341	0.300	0.330	0.344
581																																																																																					0.318	0.335	0.339	0.338	0.336	0.312	0.366	0.306	0.336	0.296	0.324	0.338
582																																																																																					0.313	0.330	0.334	0.333	0.331	0.307	0.361	0.302	0.331	0.291	0.319	0.333
583																																																																																					0.309	0.325	0.328	0.328	0.326	0.302	0.354	0.297	0.326	0.287	0.314	0.327
584																																																																																					0.304	0.320	0.323	0.323	0.320	0.297	0.348	0.292	0.321	0.282	0.309	0.322
585																																																																																					0.300	0.315	0.318	0.317	0.315	0.293	0.343	0.287	0.316	0.278	0.304	0.316
586																																																																																					0.296	0.310	0.313	0.312	0.310	0.288	0.338	0.283	0.311	0.273	0.299	0.311
587																																																																																					0.292	0.305	0.308	0.307	0.305	0.284	0.332	0.278	0.306	0.269	0.294	0.306
588																																																																																					0.288	0.301	0.303	0.303	0.300	0.280	0.327	0.274	0.302	0.265	0.289	0.301
589																																																																																					0.284	0.296	0.299	0.298	0.296	0.276	0.323	0.270	0.297	0.261	0.285	0.297
590																																																																																					0.281	0.292	0.294	0.294	0.292	0.272	0.318	0.266	0.293	0.258	0.281	0.293
591																																																																																					0.277	0.288	0.290	0.289	0.287	0.268	0.314	0.262	0.289	0.254	0.277	0.288
592																																																																																					0.275	0.284	0.286	0.286	0.284	0.265	0.309	0.259	0.285	0.251	0.273	0.284
593																																																																																					0.271	0.281	0.282	0.282	0.280	0.262	0.305	0.256	0.281	0.247	0.269	0.281
594																																																																																					0.268	0.277	0.278	0.278	0.276	0.258	0.301	0.252	0.278	0.244	0.266	0.276
595																																																																																					0.265	0.273	0.274	0.273	0.272	0.255	0.297	0.248	0.274	0.240	0.262	0.272
596																																																																																					0.262	0.269	0.270	0.270	0.268	0.252	0.293	0.245	0.270	0.237	0.258	0.269
597																																																																																					0.259	0.266	0.267	0.267	0.265	0.249	0.290	0.242	0.267	0.234	0.255	0.265
598																																																																																					0.257	0.263	0.264	0.263	0.262	0.246	0.286	0.239	0.264	0.232	0.252	0.262
599																																																																																					0.254	0.260	0.260	0.260	0.259	0.243	0.283	0.236	0.261	0.229	0.249	0.259
600																																																																																					0.252	0.257	0.256	0.256	0.255	0.240	0.279	0.233	0.257	0.226	0.245	0.255
601																																																																																					0.249	0.253	0.253	0.253	0.252	0.237	0.275	0.230	0.254	0.223	0.242	0.252
602																																																																																					0.246	0.250	0.249	0.249	0.248	0.234	0.272	0.227	0.251	0.220	0.239	0.248
603																																																																																					0.244	0.247	0.246	0.247	0.246	0.232	0.269	0.225	0.248	0.218	0.236	0.245
604																																																																																					0.242	0.245	0.244	0.244	0.243	0.230	0.266	0.222	0.246	0.216	0.234	0.243
605																																																																																					0.240	0.242	0.241	0.241	0.241	0.228	0.264	0.220	0.243	0.214	0.231	0.240
606																																																																																					0.238	0.240	0.239	0.239	0.238	0.226	0.261	0.218	0.241	0.211	0.229	0.238
607																																																																																					0.236	0.238	0.236	0.237	0.236	0.223	0.259	0.216	0.239	0.209	0.226	0.235
608																																																																																					0.234	0.235	0.233	0.234	0.233	0.221	0.256	0.214	0.236	0.207	0.224	0.233
609																																																																																					0.233	0.233	0.231	0.231	0.231	0.219	0.253	0.212	0.234	0.205	0.221	0.230
610																																																																																					0.231	0.231	0.229	0.229	0.229	0.217	0.251	0.210	0.232	0.203	0.220	0.228
611																																																																																					0.230	0.229	0.227	0.227	0.227	0.216	0.249	0.208	0.230	0.202	0.218	0.226
612																																																																																					0.229	0.228	0.225	0.225	0.225	0.214	0.247	0.206	0.228	0.200	0.216	0.224
613																																																																																					0.227	0.226	0.223	0.223	0.223	0.212	0.245	0.204	0.226	0.198	0.214	0.222
614																																																																																					0.226	0.224	0.221	0.221	0.221	0.210	0.243	0.203	0.224	0.196	0.211	0.220
615																																																																																					0.224	0.222	0.218	0.219	0.219	0.209	0.241	0.201	0.222	0.195	0.210	0.218
616																																																																																					0.223	0.220	0.216	0.217	0.217	0.207	0.239	0.199	0.220	0.193	0.208	0.216
617																																																																																					0.222	0.219	0.215	0.215	0.216	0.206	0.237	0.198	0.218	0.191	0.206	0.214
618																																																																																					0.221	0.217	0.213	0.214	0.214	0.204	0.235	0.196	0.217	0.190	0.204	0.212
619																																																																																					0.220	0.216	0.212	0.212	0.212	0.203	0.234	0.195	0.215	0.189	0.203	0.211
620																																																																																					0.219	0.214	0.210	0.211	0.211	0.201	0.232	0.193	0.213	0.187	0.201	0.209
621																																																																																					0.218	0.213	0.208	0.209	0.209	0.200	0.230	0.192	0.212	0.186	0.200	0.207
622																																																																																					0.217	0.212	0.207	0.208	0.208	0.199	0.229	0.191	0.210	0.184	0.198	0.206
623																																																																																					0.216	0.211	0.205	0.206	0.206	0.198	0.227	0.190	0.209	0.183	0.197	0.204
624																																																																																					0.216	0.210	0.204	0.205	0.205	0.197	0.226	0.189	0.208	0.182	0.196	0.203
625																																																																																					0.215	0.209	0.203	0.204	0.204	0.196	0.225	0.187	0.206	0.181	0.194	0.202
626																																																																																					0.214	0.208	0.202	0.203	0.203	0.195	0.223	0.186	0.205	0.180	0.193	0.200
627																																																																																					0.214	0.207	0.201	0.202	0.202	0.194	0.222	0.185	0.204	0.179	0.192	0.199
628																																																																																					0.214	0.206	0.200	0.201	0.201	0.193	0.221	0.184	0.203	0.178	0.191	0.198
629																																																																																					0.213	0.206	0.199	0.200	0.200	0.192	0.220	0.183	0.202	0.177	0.190	0.197
630																																																																																					0.213	0.205	0.198	0.199	0.199	0.191	0.219	0.183	0.201	0.176	0.189	0.196
631																																																																																					0.212	0.204	0.197	0.198	0.198	0.190	0.218	0.182	0.200	0.176	0.188	0.195
632																																																																																					0.212	0.204	0.196	0.197	0.197	0.190	0.217	0.181	0.200	0.175	0.187	0.194
633																																																																																					0.212	0.203	0.195	0.196	0.197	0.189	0.216	0.180	0.199	0.174	0.186	0.193
634																																																																																					0.212	0.203	0.195	0.195	0.196	0.188	0.216	0.180	0.198	0.173	0.185	0.193
635																																																																																					0.212	0.202	0.194	0.195	0.195	0.188	0.215	0.179	0.197	0.172	0.185	0.192
636																																																																																					0.212	0.202	0.193	0.194	0.195	0.187	0.214	0.178	0.196	0.172	0.184	0.191
637																																																																																					0.212	0.201	0.192	0.193	0.194	0.186	0.213	0.178	0.196	0.171	0.183	0.190
638																																																																																					0.212	0.201	0.192	0.193	0.194	0.186	0.213	0.177	0.195	0.171	0.183	0.189
639																																																																																					0.212	0.201	0.192	0.192	0.193	0.186	0.212	0.177	0.195	0.170	0.182	0.189
640																																																																																					0.212	0.201	0.191	0.192	0.192	0.185	0.211	0.176	0.194	0.170	0.181	0.188
641																																																																																					0.212	0.201	0.191	0.191	0.192	0.185	0.211	0.176	0.193	0.169	0.181	0.187
642																																																																																					0.213	0.201	0.190	0.191	0.192	0.184	0.211	0.175	0.193	0.169	0.180	0.187
643																																																																																					0.213	0.201	0.190	0.190	0.191	0.184	0.210	0.175	0.193	0.169	0.180	0.186
644																																																																																					0.213	0.201	0.189	0.190	0.191	0.184	0.210	0.175	0.192	0.168	0.179	0.186
645																																																																																					0.214	0.201	0.189	0.190	0.191	0.183	0.209	0.174	0.192	0.168	0.179	0.185
646																																																																																					0.214	0.201	0.189	0.190	0.191	0.183	0.209	0.174	0.191	0.167	0.179	0.185
647																																																																																					0.215	0.201	0.189	0.189	0.191	0.183	0.209	0.174	0.191	0.167	0.178	0.185
648																																																																																					0.215	0.201	0.189	0.189	0.190	0.183	0.209	0.174	0.191	0.167	0.178	0.184
649																																																																																					0.216	0.202	0.189	0.189	0.190	0.183	0.208	0.173	0.191	0.167	0.178	0.184
650																																																																																					0.217	0.202	0.188	0.189	0.190	0.182	0.208	0.173	0.190	0.166	0.177	0.184
651																																																																																					0.218	0.202	0.189	0.189	0.190	0.182	0.208	0.173	0.190	0.166	0.177	0.183
652																																																																																					0.219	0.203	0.189	0.189	0.190	0.182	0.208	0.173	0.190	0.166	0.177	0.183
653																																																																																					0.220	0.203	0.189	0.189	0.190	0.182	0.208	0.173	0.190	0.166	0.177	0.183
654																																																																																					0.220	0.204	0.189	0.189	0.190	0.182	0.208	0.173	0.190	0.166	0.177	0.183
655																																																																																					0.221	0.205	0.189	0.189	0.190	0.182	0.208	0.173	0.190	0.166	0.177	0.183
656																																																																																					0.223	0.205	0.189	0.189	0.191	0.183	0.208	0.173	0.190	0.166	0.177	0.183
657																																																																																					0.224	0.206	0.189	0.190	0.191	0.183	0.208	0.173	0.190	0.166	0.177	0.183
658																																																																																					0.225	0.207	0.190	0.190	0.191	0.183	0.209	0.174	0.190	0.166	0.177	0.183
659																																																																																					0.226	0.208	0.190	0.190	0.192	0.183	0.209	0.174	0.190	0.166	0.177	0.183
660																																																																																					0.228	0.209	0.190	0.190	0.192	0.184	0.209	0.174	0.191	0.167	0.177	0.183
661																																																																																					0.229	0.210	0.191	0.191	0.192	0.184	0.209	0.174	0.191	0.167	0.177	0.183
662																																																																																					0.231	0.211	0.192	0.191	0.193	0.184	0.210	0.175	0.191	0.167	0.178	0.184
663																																																																																					0.232	0.212	0.192	0.192	0.193	0.184	0.210	0.175	0.191	0.167	0.178	0.184
664																																																																																					0.234	0.213	0.192	0.192	0.194	0.185	0.210	0.175	0.192	0.167	0.178	0.184
665																																																																																					0.236	0.214	0.193	0.193	0.194	0.185	0.211	0.176	0.192	0.168	0.178	0.184
666																																																																																					0.237	0.215	0.194	0.193	0.195	0.185	0.211	0.176	0.192	0.168	0.178	0.185
667																																																																																					0.239	0.217	0.194	0.194	0.196	0.186	0.212	0.177	0.193	0.168	0.179	0.185
668																																																																																					0.241	0.218	0.195	0.195	0.196	0.187	0.213	0.177	0.193	0.169	0.179	0.185
669																																																																																					0.243	0.220	0.196	0.196	0.197	0.187	0.213	0.178	0.194	0.169	0.180	0.186
670																																																																																					0.246	0.221	0.197	0.196	0.198	0.188	0.214	0.178	0.194	0.170	0.180	0.186
671																																																																																					0.248	0.223	0.198	0.197	0.199	0.189	0.215	0.179	0.195	0.170	0.181	0.187
672																																																																																					0.250	0.225	0.199	0.198	0.200	0.189	0.216	0.179	0.195	0.171	0.181	0.187
673																																																																																					0.253	0.226	0.200	0.199	0.201	0.190	0.216	0.180	0.196	0.171	0.182	0.188
674																																																																																					0.256	0.229	0.201	0.200	0.202	0.191	0.217	0.181	0.197	0.172	0.183	0.189
675																																																																																					0.258	0.231	0.202	0.201	0.202	0.192	0.218	0.182	0.198	0.172	0.183	0.189
676																																																																																					0.261	0.233	0.203	0.202	0.204	0.192	0.219	0.182	0.198	0.173	0.184	0.190
677																																																																																					0.264	0.235	0.205	0.203	0.205	0.193	0.220	0.183	0.199	0.174	0.185	0.191
678																																																																																					0.267	0.237	0.206	0.204	0.206	0.194	0.221	0.184	0.200	0.174	0.185	0.192
679																																																																																					0.270	0.239	0.207	0.206	0.207	0.196	0.223	0.185	0.201	0.175	0.186	0.193
680																																																																																					0.274	0.242	0.209	0.207	0.209	0.197	0.224	0.186	0.202	0.176	0.187	0.194
681																																																																																					0.278	0.245	0.211	0.209	0.210	0.198	0.225	0.188	0.203	0.177	0.188	0.194
682																																																																																					0.281	0.247	0.212	0.210	0.212	0.199	0.227	0.189	0.204	0.178	0.189	0.196
683																																																																																					0.285	0.250	0.214	0.212	0.213	0.200	0.228	0.190	0.205	0.179	0.190	0.197
684																																																																																					0.288	0.253	0.216	0.213	0.215	0.201	0.230	0.191	0.206	0.180	0.191	0.198
685																																																																																					0.293	0.256	0.218	0.215	0.217	0.203	0.231	0.192	0.208	0.181	0.193	0.199
686																																																																																					0.297	0.260	0.220	0.217	0.219	0.204	0.233	0.194	0.209	0.182	0.194	0.200
687																																																																																					0.302	0.263	0.222	0.219	0.221	0.206	0.235	0.195	0.211	0.183	0.195	0.202
688																																																																																					0.306	0.267	0.224	0.221	0.223	0.208	0.237	0.197	0.212	0.185	0.197	0.203
689																																																																																					0.311	0.271	0.227	0.223	0.225	0.209	0.238	0.198	0.214	0.186	0.198	0.204
690																																																																																					0.316	0.274	0.229	0.226	0.227	0.211	0.240	0.200	0.216	0.187	0.200	0.206
691																																																																																					0.321	0.278	0.231	0.228	0.229	0.212	0.242	0.202	0.217	0.189	0.201	0.207
692																																																																																					0.326	0.282	0.234	0.230	0.232	0.214	0.244	0.203	0.219	0.190	0.203	0.209
693																																																																																					0.332	0.287	0.237	0.233	0.234	0.216	0.247	0.205	0.221	0.192	0.204	0.211
694																																																																																					0.338	0.291	0.239	0.235	0.237	0.218	0.249	0.207	0.223	0.193	0.206	0.212
695																																																																																					0.343	0.295	0.242	0.238	0.239	0.220	0.251	0.209	0.224	0.195	0.208	0.214
696																																																																																					0.350	0.301	0.245	0.241	0.242	0.223	0.254	0.211	0.227	0.197	0.210	0.216
697																																																																																					0.357	0.306	0.249	0.244	0.245	0.225	0.257	0.214	0.229	0.199	0.212	0.218
698																																																																																					0.363	0.311	0.252	0.247	0.248	0.227	0.259	0.216	0.231	0.200	0.214	0.220
699																																																																																					0.369	0.316	0.255	0.250	0.251	0.230	0.262	0.218	0.233	0.202	0.216	0.222
700																																																																																					0.375	0.321	0.259	0.253	0.254	0.232	0.265	0.220	0.235	0.204	0.218	0.224
701																																																																																					0.382	0.326	0.262	0.256	0.257	0.235	0.268	0.223	0.238	0.206	0.220	0.227
702																																																																																					0.390	0.332	0.266	0.260	0.261	0.237	0.271	0.225	0.240	0.208	0.223	0.229
703																																																																																					0.398	0.339	0.270	0.264	0.264	0.240	0.274	0.228	0.243	0.211	0.225	0.232
704																																																																																					0.406	0.345	0.274	0.267	0.268	0.243	0.278	0.231	0.246	0.213	0.227	0.234
705																																																																																					0.414	0.351	0.278	0.271	0.272	0.247	0.281	0.234	0.249	0.216	0.230	0.237
706																																																																																					0.422	0.358	0.283	0.275	0.276	0.250	0.285	0.237	0.252	0.218	0.233	0.240
707																																																																																					0.430	0.365	0.287	0.279	0.280	0.253	0.289	0.240	0.255	0.221	0.235	0.243
708																																																																																					0.439	0.372	0.292	0.283	0.284	0.256	0.292	0.243	0.258	0.224	0.238	0.246
709																																																																																					0.449	0.380	0.297	0.288	0.289	0.260	0.297	0.247	0.262	0.227	0.242	0.249
710																																																																																					0.457	0.387	0.302	0.292	0.293	0.264	0.301	0.250	0.265	0.229	0.245	0.252
711																																																																																					0.467	0.394	0.307	0.297	0.298	0.268	0.305	0.253	0.269	0.233	0.248	0.255
712																																																																																					0.476	0.402	0.312	0.302	0.302	0.271	0.309	0.257	0.272	0.236	0.251	0.259
713																																																																																					0.486	0.410	0.318	0.307	0.307	0.276	0.314	0.261	0.276	0.239	0.255	0.262
714																																																																																					0.496	0.419	0.323	0.313	0.313	0.280	0.319	0.265	0.280	0.242	0.259	0.266
715																																																																																					0.507	0.427	0.329	0.318	0.318	0.284	0.324	0.269	0.284	0.246	0.262	0.270
716																																																																																					0.517	0.436	0.335	0.324	0.323	0.288	0.329	0.273	0.288	0.249	0.266	0.273
717																																																																																					0.527	0.445	0.341	0.329	0.329	0.292	0.334	0.277	0.293	0.253	0.270	0.277
718																																																																																					0.538	0.454	0.347	0.335	0.335	0.297	0.339	0.281	0.297	0.256	0.274	0.281
719																																																																																					0.549	0.464	0.354	0.341	0.341	0.301	0.344	0.286	0.301	0.260	0.278	0.285
720																																																																																					0.559	0.473	0.360	0.347	0.346	0.306	0.350	0.290	0.306	0.264	0.282	0.289
721																																																																																					0.571	0.483	0.367	0.353	0.353	0.311	0.356	0.295	0.311	0.268	0.286	0.294
722																																																																																					0.584	0.494	0.375	0.360	0.360	0.317	0.362	0.300	0.316	0.272	0.291	0.298
723																																																																																					0.596	0.504	0.382	0.367	0.367	0.322	0.368	0.305	0.321	0.277	0.296	0.303
724																																																																																					0.608	0.515	0.390	0.374	0.373	0.327	0.374	0.310	0.326	0.281	0.301	0.308
725																																																																																					0.620	0.526	0.398	0.382	0.381	0.333	0.381	0.316	0.332	0.286	0.306	0.313
726																																																																																					0.632	0.537	0.405	0.389	0.387	0.339	0.387	0.321	0.337	0.290	0.311	0.318
727																																																																																					0.645	0.548	0.414	0.397	0.395	0.345	0.395	0.327	0.343	0.295	0.316	0.324
728																																																																																					0.660	0.561	0.423	0.405	0.404	0.352	0.402	0.334	0.349	0.300	0.322	0.330
729																																																																																					0.674	0.574	0.432	0.414	0.412	0.358	0.410	0.340	0.356	0.306	0.328	0.336
730																																																																																					0.687	0.585	0.441	0.422	0.420	0.365	0.417	0.346	0.362	0.311	0.334	0.342
731																																																																																					0.701	0.598	0.450	0.431	0.429	0.372	0.426	0.353	0.369	0.317	0.340	0.348
732																																																																																					0.714	0.610	0.459	0.439	0.437	0.379	0.433	0.359	0.375	0.322	0.346	0.354
733																																																																																					0.728	0.623	0.469	0.449	0.446	0.386	0.442	0.366	0.382	0.328	0.352	0.360
734																																																																																					0.742	0.635	0.478	0.457	0.454	0.393	0.450	0.373	0.389	0.334	0.358	0.367
735																																																																																					0.756	0.649	0.488	0.467	0.464	0.401	0.459	0.380	0.396	0.340	0.365	0.373
736																																																																																					0.771	0.663	0.499	0.476	0.473	0.408	0.468	0.388	0.404	0.346	0.372	0.381
737																																																																																					0.786	0.676	0.510	0.486	0.483	0.416	0.477	0.395	0.411	0.352	0.379	0.388
738																																																																																					0.801	0.690	0.520	0.496	0.493	0.424	0.486	0.403	0.419	0.359	0.386	0.395
739																																																																																					0.815	0.705	0.531	0.506	0.503	0.432	0.495	0.411	0.426	0.366	0.394	0.402
740																																																																																					0.830	0.718	0.542	0.517	0.513	0.441	0.505	0.419	0.434	0.372	0.401	0.409
741																																																																																					0.845	0.732	0.553	0.527	0.523	0.449	0.514	0.426	0.442	0.379	0.408	0.417
742																																																																																					0.860	0.747	0.565	0.538	0.533	0.458	0.525	0.435	0.451	0.386	0.416	0.425
743																																																																																					0.875	0.761	0.576	0.549	0.544	0.466	0.535	0.443	0.459	0.393	0.423	0.433
744																																																																																					0.890	0.776	0.588	0.560	0.555	0.475	0.545	0.452	0.467	0.400	0.432	0.441
745																																																																																					0.906	0.791	0.600	0.572	0.567	0.485	0.556	0.461	0.477	0.408	0.440	0.449
746																																																																																					0.921	0.806	0.613	0.583	0.578	0.494	0.567	0.470	0.485	0.416	0.448	0.458
747																																																																																					0.937	0.822	0.625	0.596	0.590	0.504	0.579	0.479	0.495	0.424	0.457	0.467
748																																																																																					0.952	0.837	0.638	0.607	0.602	0.514	0.590	0.489	0.504	0.432	0.466	0.476
749																																																																																					0.968	0.853	0.651	0.620	0.614	0.524	0.602	0.499	0.514	0.440	0.475	0.485
750																																																																																					0.984	0.869	0.664	0.633	0.626	0.534	0.614	0.509	0.524	0.449	0.485	0.495
751																																																																																					0.999	0.884	0.677	0.645	0.638	0.545	0.625	0.518	0.534	0.457	0.494	0.504
752																																																																																					1.013	0.899	0.690	0.657	0.650	0.554	0.637	0.528	0.543	0.465	0.502	0.513
753																																																																																					1.028	0.914	0.703	0.670	0.663	0.565	0.649	0.538	0.554	0.473	0.512	0.523
754																																																																																					1.043	0.929	0.717	0.682	0.675	0.575	0.661	0.548	0.564	0.482	0.522	0.532
755																																																																																					1.058	0.945	0.730	0.696	0.688	0.586	0.674	0.559	0.574	0.491	0.531	0.542
756																																																																																					1.073	0.961	0.744	0.709	0.701	0.597	0.687	0.569	0.585	0.500	0.542	0.552
757																																																																																					1.088	0.977	0.758	0.722	0.715	0.609	0.700	0.580	0.596	0.509	0.552	0.563
758																																																																																					1.105	0.996	0.775	0.739	0.731	0.622	0.716	0.594	0.609	0.521	0.564	0.576
759																																																																																					1.120	1.011	0.789	0.752	0.744	0.634	0.730	0.605	0.620	0.530	0.575	0.586
760																																																																																					1.136	1.028	0.804	0.767	0.758	0.646	0.744	0.617	0.632	0.540	0.586	0.598
761																																																																																					1.152	1.045	0.821	0.783	0.774	0.659	0.760	0.630	0.645	0.552	0.599	0.610
762																																																																																					1.168	1.063	0.837	0.799	0.790	0.673	0.775	0.643	0.659	0.563	0.611	0.623
763																																																																																					1.182	1.078	0.851	0.812	0.803	0.685	0.789	0.654	0.670	0.573	0.622	0.634
764																																																																																					1.194	1.092	0.864	0.825	0.816	0.695	0.801	0.664	0.680	0.582	0.632	0.644
765																																																																																					1.205	1.104	0.876	0.836	0.827	0.704	0.813	0.674	0.690	0.590	0.640	0.653
766																																																																																					1.218	1.119	0.890	0.850	0.841	0.716	0.827	0.685	0.701	0.600	0.652	0.664
767																																																																																					1.233	1.135	0.906	0.866	0.856	0.729	0.842	0.699	0.714	0.611	0.664	0.677
768																																																																																					1.248	1.152	0.923	0.882	0.873	0.744	0.859	0.712	0.728	0.623	0.678	0.691
769																																																																																					1.261	1.169	0.939	0.898	0.888	0.758	0.875	0.726	0.742	0.634	0.690	0.704
770																																																																																					1.276	1.185	0.955	0.914	0.904	0.771	0.891	0.739	0.755	0.646	0.703	0.717
771																																																																																					1.288	1.200	0.970	0.929	0.919	0.784	0.906	0.752	0.768	0.657	0.716	0.730
772																																																																																					1.301	1.215	0.985	0.944	0.934	0.798	0.922	0.765	0.781	0.668	0.728	0.743
773																																																																																					1.315	1.231	1.002	0.961	0.950	0.812	0.939	0.779	0.795	0.680	0.741	0.756
774																																																																																					1.327	1.246	1.018	0.976	0.966	0.825	0.955	0.793	0.809	0.692	0.754	0.770
775																																																																																					1.339	1.262	1.034	0.992	0.981	0.839	0.972	0.806	0.823	0.704	0.767	0.783
776																																																																																					1.352	1.276	1.050	1.008	0.997	0.853	0.988	0.820	0.836	0.716	0.781	0.797
777																																																																																					1.364	1.291	1.066	1.024	1.012	0.867	1.005	0.834	0.850	0.728	0.794	0.811
778																																																																																					1.376	1.307	1.083	1.041	1.029	0.882	1.023	0.849	0.865	0.741	0.809	0.826
779																																																																																					1.388	1.322	1.099	1.056	1.045	0.896	1.040	0.863	0.879	0.753	0.823	0.840
780																																																																																					1.399	1.337	1.116	1.073	1.062	0.911	1.057	0.878	0.895	0.766	0.838	0.855
781																																																																																					1.411	1.351	1.131	1.089	1.078	0.926	1.074	0.892	0.909	0.778	0.851	0.869
782																																																																																					1.421	1.365	1.147	1.105	1.094	0.940	1.092	0.906	0.923	0.791	0.865	0.883
783																																																																																					1.431	1.379	1.163	1.121	1.110	0.954	1.109	0.921	0.938	0.803	0.879	0.898
784																																																																																					1.442	1.393	1.180	1.138	1.126	0.969	1.126	0.936	0.953	0.817	0.894	0.913
785																																																																																					1.453	1.407	1.196	1.155	1.143	0.985	1.145	0.952	0.968	0.830	0.909	0.929
786																																																																																					1.463	1.422	1.214	1.172	1.160	1.001	1.164	0.968	0.984	0.845	0.925	0.945
787																																																																																					1.473	1.436	1.230	1.189	1.177	1.015	1.183	0.983	1.000	0.858	0.940	0.961
788																																																																																					1.482	1.449	1.247	1.206	1.193	1.031	1.201	0.999	1.016	0.871	0.955	0.976
789																																																																																					1.490	1.460	1.262	1.221	1.208	1.044	1.217	1.013	1.029	0.883	0.969	0.991
790																																																																																					1.498	1.473	1.276	1.236	1.224	1.059	1.234	1.027	1.044	0.896	0.983	1.006
791																																																																																					1.506	1.485	1.291	1.252	1.239	1.073	1.252	1.041	1.058	0.909	0.997	1.020
792																																																																																					1.515	1.498	1.309	1.270	1.257	1.091	1.272	1.059	1.076	0.924	1.014	1.038
793																																																																																					1.522	1.509	1.324	1.285	1.273	1.105	1.289	1.073	1.090	0.937	1.029	1.053
794																																																																																					1.530	1.521	1.339	1.301	1.288	1.119	1.308	1.088	1.106	0.951	1.044	1.069
795																																																																																					1.537	1.533	1.355	1.318	1.305	1.135	1.326	1.104	1.122	0.965	1.060	1.086
796																																																																																					1.543	1.543	1.369	1.332	1.319	1.148	1.342	1.118	1.136	0.977	1.074	1.101
797																																																																																					1.549	1.553	1.384	1.348	1.335	1.164	1.360	1.133	1.151	0.990	1.089	1.116
798																																																																																					1.555	1.564	1.399	1.363	1.350	1.177	1.378	1.148	1.166	1.003	1.104	1.131
799																																																																																					1.561	1.574	1.414	1.378	1.365	1.192	1.395	1.163	1.181	1.016	1.119	1.148
800																																																																																					1.566	1.584	1.428	1.393	1.381	1.207	1.413	1.178	1.196	1.030	1.135	1.163
801																																																																																					1.571	1.594	1.443	1.410	1.397	1.222	1.432	1.194	1.212	1.044	1.151	1.180
802																																																																																					1.575	1.602	1.456	1.423	1.411	1.236	1.449	1.208	1.226	1.057	1.165	1.195
803																																																																																					1.579	1.611	1.470	1.437	1.425	1.249	1.466	1.222	1.241	1.069	1.179	1.210
804																																																																																					1.584	1.619	1.484	1.453	1.440	1.264	1.484	1.238	1.257	1.083	1.195	1.227
805																																																																																					1.587	1.628	1.497	1.467	1.454	1.279	1.501	1.252	1.271	1.097	1.210	1.242
806																																																																																					1.591	1.635	1.509	1.480	1.467	1.291	1.516	1.266	1.285	1.108	1.224	1.256
807																																																																																					1.593	1.643	1.523	1.495	1.482	1.306	1.534	1.280	1.300	1.122	1.239	1.273
808																																																																																					1.595	1.649	1.535	1.507	1.494	1.318	1.549	1.293	1.313	1.134	1.251	1.287
809																																																																																					1.597	1.655	1.547	1.520	1.507	1.331	1.566	1.307	1.327	1.146	1.267	1.302
810																																																																																					1.599	1.661	1.558	1.533	1.520	1.343	1.582	1.321	1.341	1.158	1.280	1.316
811																																																																																					1.601	1.668	1.571	1.546	1.534	1.357	1.599	1.335	1.356	1.171	1.295	1.332
812																																																																																					1.602	1.674	1.582	1.559	1.547	1.370	1.614	1.348	1.369	1.183	1.310	1.347
813																																																																																					1.603	1.680	1.594	1.572	1.560	1.383	1.631	1.362	1.383	1.197	1.324	1.363
814																																																																																					1.603	1.684	1.606	1.584	1.572	1.396	1.646	1.376	1.397	1.208	1.338	1.377
815																																																																																					1.604	1.689	1.617	1.596	1.584	1.408	1.662	1.389	1.411	1.221	1.352	1.392
816																																																																																					1.603	1.694	1.628	1.609	1.598	1.422	1.679	1.404	1.426	1.235	1.368	1.409
817																																																																																					1.603	1.698	1.638	1.620	1.609	1.433	1.693	1.417	1.438	1.246	1.381	1.423
818																																																																																					1.602	1.702	1.648	1.632	1.621	1.446	1.710	1.430	1.452	1.259	1.395	1.438
819																																																																																					1.601	1.705	1.659	1.644	1.633	1.459	1.726	1.444	1.466	1.272	1.410	1.454
820																																																																																					1.599	1.709	1.671	1.658	1.647	1.474	1.745	1.460	1.482	1.286	1.427	1.473
821																																																																																					1.597	1.711	1.682	1.670	1.659	1.487	1.762	1.475	1.497	1.300	1.443	1.489
822																																																																																					1.595	1.714	1.690	1.679	1.668	1.496	1.774	1.485	1.508	1.309	1.454	1.501
823																																																																																					1.595	1.716	1.694	1.685	1.674	1.503	1.782	1.492	1.515	1.316	1.462	1.509
824																																																																																					1.594	1.717	1.700	1.691	1.680	1.508	1.789	1.498	1.522	1.322	1.469	1.517
825																																																																																					1.592	1.719	1.705	1.698	1.687	1.516	1.798	1.507	1.531	1.330	1.478	1.526
826																																																																																					1.588	1.720	1.715	1.709	1.699	1.529	1.815	1.521	1.546	1.344	1.494	1.544
827																																																																																					1.584	1.721	1.724	1.720	1.709	1.541	1.830	1.534	1.560	1.356	1.508	1.560
828																																																																																					1.581	1.721	1.731	1.727	1.717	1.550	1.842	1.544	1.570	1.366	1.520	1.571
829																																																																																					1.579	1.722	1.736	1.733	1.724	1.556	1.850	1.552	1.578	1.373	1.528	1.580
830																																																																																					1.575	1.722	1.742	1.740	1.731	1.565	1.860	1.561	1.588	1.382	1.538	1.591
831																																																																																					1.570	1.721	1.748	1.749	1.740	1.575	1.873	1.572	1.599	1.393	1.552	1.605
832																																																																																					1.563	1.719	1.756	1.759	1.750	1.587	1.891	1.587	1.614	1.407	1.568	1.623
833																																																																																					1.557	1.718	1.762	1.766	1.758	1.597	1.902	1.597	1.625	1.418	1.580	1.637
834																																																																																					1.553	1.717	1.767	1.772	1.763	1.603	1.911	1.605	1.633	1.425	1.589	1.646
835																																																																																					1.549	1.716	1.770	1.777	1.768	1.609	1.919	1.612	1.641	1.432	1.597	1.655
836																																																																																					1.546	1.714	1.773	1.781	1.773	1.614	1.926	1.618	1.647	1.438	1.605	1.663
837																																																																																					1.539	1.712	1.777	1.786	1.778	1.621	1.934	1.626	1.656	1.446	1.613	1.673
838																																																																																					1.532	1.708	1.780	1.791	1.784	1.628	1.944	1.634	1.665	1.455	1.624	1.685
839																																																																																					1.524	1.704	1.784	1.796	1.789	1.635	1.954	1.643	1.674	1.464	1.634	1.696
840																																																																																					1.518	1.700	1.786	1.800	1.793	1.641	1.962	1.650	1.682	1.471	1.643	1.706
841																																																																																					1.512	1.697	1.789	1.803	1.797	1.646	1.969	1.656	1.688	1.478	1.650	1.714
842																																																																																					1.505	1.694	1.790	1.807	1.800	1.650	1.974	1.661	1.694	1.483	1.657	1.721
843																																																																																					1.499	1.690	1.791	1.810	1.803	1.654	1.979	1.667	1.701	1.490	1.665	1.730
844																																																																																					1.490	1.685	1.793	1.812	1.806	1.660	1.987	1.674	1.708	1.496	1.673	1.739
845																																																																																					1.482	1.679	1.794	1.814	1.809	1.663	1.993	1.679	1.714	1.502	1.681	1.747
846																																																																																					1.474	1.674	1.794	1.817	1.811	1.667	2.000	1.684	1.719	1.508	1.687	1.755
847																																																																																					1.466	1.669	1.794	1.818	1.811	1.671	2.004	1.689	1.724	1.514	1.693	1.762
848																																																																																					1.459	1.663	1.794	1.819	1.814	1.673	2.008	1.694	1.729	1.518	1.700	1.769
849																																																																																					1.450	1.657	1.794	1.819	1.815	1.676	2.014	1.697	1.734	1.523	1.705	1.775
850																																																																																					1.443	1.652	1.793	1.821	1.815	1.679	2.017	1.701	1.738	1.528	1.711	1.782
851																																																																																					1.435	1.646	1.792	1.820	1.816	1.681	2.021	1.704	1.742	1.532	1.715	1.788
852																																																																																					1.425	1.639	1.791	1.821	1.816	1.683	2.025	1.708	1.746	1.536	1.722	1.795
853																																																																																					1.417	1.632	1.789	1.819	1.816	1.684	2.025	1.710	1.750	1.540	1.726	1.799
854																																																																																					1.408	1.625	1.788	1.820	1.816	1.685	2.029	1.713	1.753	1.543	1.730	1.804
855																																																																																					1.399	1.619	1.785	1.818	1.815	1.686	2.031	1.715	1.757	1.546	1.734	1.809
856																																																																																					1.390	1.611	1.782	1.817	1.814	1.687	2.033	1.717	1.759	1.550	1.738	1.813
857																																																																																					1.381	1.603	1.780	1.815	1.811	1.687	2.034	1.718	1.761	1.552	1.741	1.818
858																																																																																					1.372	1.595	1.776	1.813	1.810	1.687	2.035	1.720	1.763	1.555	1.744	1.822
859																																																																																					1.362	1.589	1.775	1.812	1.808	1.688	2.036	1.720	1.764	1.557	1.748	1.826
860																																																																																					1.353	1.581	1.770	1.809	1.807	1.687	2.036	1.722	1.766	1.559	1.749	1.829
861																																																																																					1.345	1.573	1.767	1.807	1.804	1.687	2.035	1.722	1.766	1.560	1.751	1.831
862																																																																																					1.335	1.564	1.762	1.804	1.801	1.685	2.035	1.722	1.768	1.562	1.754	1.833
863																																																																																					1.326	1.557	1.759	1.801	1.798	1.684	2.035	1.722	1.769	1.563	1.756	1.837
864																																																																																					1.316	1.548	1.754	1.796	1.795	1.683	2.035	1.722	1.768	1.564	1.757	1.839
865																																																																																					1.307	1.539	1.749	1.794	1.791	1.681	2.034	1.721	1.768	1.565	1.758	1.841
866																																																																																					1.297	1.531	1.744	1.789	1.788	1.678	2.030	1.720	1.769	1.565	1.759	1.843
867																																																																																					1.287	1.522	1.739	1.786	1.784	1.676	2.030	1.719	1.769	1.566	1.759	1.843
868																																																																																					1.278	1.514	1.734	1.781	1.780	1.674	2.028	1.718	1.768	1.566	1.760	1.845
869																																																																																					1.268	1.504	1.728	1.777	1.775	1.672	2.025	1.716	1.768	1.566	1.760	1.847
870																																																																																					1.259	1.496	1.722	1.772	1.771	1.668	2.022	1.714	1.766	1.566	1.760	1.846
871																																																																																					1.249	1.487	1.716	1.768	1.766	1.665	2.021	1.712	1.764	1.566	1.761	1.847
872																																																																																					1.240	1.478	1.711	1.762	1.761	1.662	2.016	1.710	1.763	1.565	1.760	1.847
873																																																																																					1.230	1.468	1.705	1.756	1.756	1.658	2.013	1.708	1.761	1.564	1.758	1.847
874																																																																																					1.221	1.459	1.698	1.750	1.750	1.654	2.009	1.705	1.758	1.562	1.758	1.846
875																																																																																					1.211	1.449	1.691	1.745	1.744	1.650	2.006	1.701	1.756	1.561	1.756	1.845
876																																																																																					1.200	1.439	1.683	1.738	1.738	1.645	2.001	1.697	1.752	1.559	1.754	1.844
877																																																																																					1.188	1.427	1.675	1.730	1.731	1.640	1.995	1.693	1.749	1.556	1.752	1.843
878																																																																																					1.175	1.414	1.663	1.721	1.721	1.632	1.987	1.687	1.743	1.552	1.748	1.840
879																																																																																					1.161	1.399	1.653	1.711	1.712	1.625	1.980	1.681	1.737	1.548	1.743	1.837
880																																																																																					1.149	1.388	1.644	1.702	1.703	1.618	1.973	1.675	1.733	1.544	1.740	1.833
881																																																																																					1.143	1.382	1.639	1.698	1.699	1.615	1.969	1.672	1.731	1.543	1.738	1.831
882																																																																																					1.138	1.378	1.635	1.695	1.696	1.612	1.966	1.670	1.730	1.542	1.738	1.829
883																																																																																					1.133	1.373	1.631	1.691	1.693	1.609	1.962	1.668	1.728	1.540	1.736	1.828
884																																																																																					1.126	1.367	1.626	1.686	1.688	1.605	1.957	1.665	1.725	1.538	1.734	1.826
885																																																																																					1.116	1.356	1.617	1.679	1.680	1.598	1.950	1.659	1.720	1.534	1.730	1.822
886																																																																																					1.102	1.341	1.604	1.666	1.668	1.589	1.940	1.650	1.712	1.528	1.724	1.817
887																																																																																					1.090	1.329	1.594	1.656	1.659	1.581	1.931	1.643	1.706	1.523	1.718	1.811
888																																																																																					1.079	1.318	1.584	1.647	1.650	1.573	1.923	1.637	1.700	1.518	1.713	1.807
889																																																																																					1.069	1.306	1.574	1.637	1.641	1.565	1.914	1.630	1.693	1.513	1.707	1.801
890																																																																																					1.058	1.295	1.563	1.628	1.631	1.557	1.906	1.623	1.686	1.508	1.702	1.796
891																																																																																					1.047	1.283	1.552	1.618	1.622	1.549	1.897	1.615	1.679	1.502	1.696	1.791
892																																																																																					1.034	1.269	1.540	1.606	1.609	1.539	1.884	1.606	1.670	1.496	1.688	1.784
893																																																																																					1.022	1.256	1.529	1.595	1.598	1.530	1.874	1.597	1.663	1.489	1.682	1.777
894																																																																																					1.013	1.247	1.520	1.586	1.590	1.523	1.866	1.591	1.657	1.484	1.676	1.772
895																																																																																					1.006	1.239	1.512	1.579	1.584	1.516	1.859	1.585	1.653	1.480	1.672	1.767
896																																																																																					1.000	1.233	1.507	1.573	1.578	1.511	1.853	1.581	1.648	1.477	1.669	1.764
897																																																																																					0.992	1.225	1.498	1.566	1.571	1.505	1.845	1.575	1.643	1.473	1.664	1.759
898																																																																																					0.984	1.215	1.489	1.557	1.562	1.497	1.837	1.568	1.637	1.468	1.658	1.754
899																																																																																					0.973	1.203	1.477	1.546	1.550	1.487	1.825	1.559	1.627	1.460	1.650	1.746
900																																																																																					0.962	1.190	1.465	1.534	1.539	1.476	1.814	1.549	1.618	1.453	1.642	1.737
901																																																																																					0.949	1.175	1.451	1.520	1.525	1.465	1.800	1.537	1.607	1.444	1.632	1.728
902																																																																																					0.937	1.162	1.438	1.507	1.512	1.453	1.787	1.526	1.596	1.435	1.622	1.719
903																																																																																					0.927	1.151	1.427	1.496	1.502	1.444	1.777	1.518	1.588	1.428	1.615	1.712
904																																																																																					0.921	1.144	1.420	1.490	1.495	1.438	1.769	1.512	1.583	1.424	1.610	1.706
905																																																																																					0.915	1.139	1.415	1.484	1.490	1.433	1.764	1.507	1.580	1.421	1.607	1.703
906																																																																																					0.910	1.133	1.408	1.478	1.484	1.427	1.757	1.502	1.575	1.417	1.602	1.698
907																																																																																					0.902	1.124	1.399	1.469	1.475	1.420	1.748	1.495	1.568	1.411	1.596	1.691
908																																																																																					0.890	1.110	1.385	1.455	1.461	1.407	1.733	1.483	1.556	1.401	1.585	1.681
909																																																																																					0.879	1.098	1.372	1.443	1.449	1.395	1.720	1.471	1.546	1.393	1.575	1.671
910																																																																																					0.870	1.087	1.361	1.431	1.437	1.385	1.707	1.462	1.535	1.384	1.565	1.662
911																																																																																					0.860	1.075	1.349	1.419	1.425	1.375	1.696	1.451	1.526	1.376	1.557	1.653
912																																																																																					0.849	1.062	1.335	1.406	1.412	1.363	1.681	1.439	1.514	1.366	1.546	1.642
913																																																																																					0.838	1.049	1.322	1.392	1.398	1.351	1.667	1.427	1.502	1.357	1.535	1.632
914																																																																																					0.827	1.036	1.308	1.379	1.385	1.338	1.653	1.415	1.490	1.347	1.524	1.620
915																																																																																					0.821	1.030	1.301	1.372	1.378	1.332	1.645	1.409	1.485	1.341	1.518	1.614
916																																																																																					0.817	1.025	1.295	1.366	1.372	1.326	1.638	1.403	1.480	1.337	1.513	1.609
917																																																																																					0.813	1.020	1.290	1.361	1.368	1.321	1.633	1.399	1.477	1.334	1.510	1.605
918																																																																																					0.808	1.015	1.284	1.355	1.362	1.316	1.626	1.394	1.472	1.330	1.505	1.600
919																																																																																					0.800	1.006	1.274	1.345	1.352	1.306	1.615	1.385	1.463	1.322	1.497	1.592
920																																																																																					0.791	0.996	1.263	1.333	1.340	1.296	1.602	1.374	1.453	1.314	1.486	1.582
921																																																																																					0.782	0.984	1.250	1.321	1.327	1.284	1.588	1.362	1.441	1.304	1.476	1.571
922																																																																																					0.774	0.975	1.240	1.310	1.316	1.274	1.576	1.352	1.431	1.295	1.466	1.561
923																																																																																					0.765	0.964	1.228	1.298	1.305	1.263	1.563	1.341	1.421	1.286	1.456	1.551
924																																																																																					0.758	0.956	1.218	1.288	1.294	1.254	1.552	1.332	1.412	1.279	1.448	1.542
925																																																																																					0.751	0.947	1.208	1.278	1.284	1.244	1.540	1.322	1.403	1.271	1.439	1.533
926																																																																																					0.744	0.938	1.198	1.268	1.274	1.234	1.529	1.313	1.393	1.262	1.429	1.524
927																																																																																					0.737	0.929	1.188	1.258	1.264	1.225	1.518	1.304	1.384	1.255	1.420	1.514
928																																																																																					0.730	0.920	1.177	1.247	1.254	1.215	1.506	1.293	1.374	1.247	1.411	1.505
929																																																																																					0.724	0.913	1.169	1.238	1.245	1.206	1.495	1.285	1.366	1.239	1.403	1.496
930																																																																																					0.717	0.906	1.160	1.229	1.236	1.198	1.485	1.276	1.357	1.232	1.395	1.487
931																																																																																					0.711	0.898	1.151	1.220	1.227	1.189	1.474	1.267	1.349	1.224	1.386	1.479
932																																																																																					0.706	0.890	1.142	1.211	1.217	1.180	1.464	1.258	1.341	1.217	1.378	1.470
933																																																																																					0.699	0.881	1.132	1.200	1.206	1.170	1.452	1.248	1.330	1.208	1.368	1.461
934																																																																																					0.693	0.874	1.123	1.191	1.197	1.161	1.441	1.239	1.321	1.201	1.359	1.452
935																																																																																					0.686	0.866	1.113	1.181	1.188	1.151	1.429	1.229	1.312	1.192	1.350	1.442
936																																																																																					0.681	0.860	1.105	1.172	1.179	1.143	1.419	1.221	1.303	1.185	1.342	1.433
937																																																																																					0.676	0.854	1.097	1.165	1.171	1.135	1.410	1.213	1.296	1.179	1.335	1.425
938																																																																																					0.672	0.849	1.091	1.158	1.165	1.129	1.402	1.207	1.290	1.173	1.329	1.419
939																																																																																					0.668	0.844	1.084	1.151	1.158	1.123	1.394	1.200	1.284	1.167	1.322	1.413
940																																																																																					0.664	0.838	1.077	1.144	1.151	1.115	1.385	1.193	1.277	1.161	1.315	1.405
941																																																																																					0.660	0.832	1.069	1.136	1.143	1.107	1.375	1.184	1.269	1.154	1.307	1.397
942																																																																																					0.655	0.825	1.061	1.127	1.134	1.098	1.365	1.176	1.260	1.147	1.298	1.388
943																																																																																					0.650	0.820	1.054	1.120	1.126	1.091	1.356	1.168	1.252	1.140	1.291	1.380
944																																																																																					0.647	0.814	1.047	1.112	1.119	1.083	1.347	1.161	1.245	1.134	1.284	1.372
945																																																																																					0.643	0.810	1.041	1.106	1.113	1.077	1.339	1.154	1.239	1.128	1.278	1.366
946																																																																																					0.640	0.805	1.034	1.099	1.106	1.071	1.331	1.147	1.232	1.122	1.271	1.359
947																																																																																					0.637	0.801	1.029	1.093	1.099	1.064	1.323	1.141	1.225	1.116	1.264	1.352
948																																																																																					0.635	0.797	1.022	1.087	1.093	1.057	1.315	1.134	1.218	1.111	1.258	1.345
949																																																																																					0.633	0.794	1.018	1.081	1.087	1.052	1.308	1.128	1.213	1.106	1.252	1.340
950																																																																																					0.631	0.791	1.013	1.077	1.083	1.047	1.302	1.123	1.209	1.102	1.247	1.334
951																																																																																					0.630	0.789	1.009	1.073	1.079	1.043	1.297	1.119	1.205	1.098	1.243	1.330
952																																																																																					0.629	0.787	1.006	1.070	1.076	1.039	1.292	1.115	1.201	1.095	1.240	1.327
953																																																																																					0.629	0.786	1.003	1.066	1.072	1.035	1.287	1.111	1.197	1.092	1.236	1.322
954																																																																																					0.627	0.783	0.999	1.061	1.067	1.030	1.281	1.106	1.192	1.087	1.231	1.317
955																																																																																					0.626	0.780	0.994	1.057	1.062	1.025	1.275	1.100	1.187	1.083	1.226	1.311
956																																																																																					0.625	0.778	0.990	1.052	1.058	1.020	1.268	1.095	1.182	1.078	1.221	1.306
957																																																																																					0.623	0.775	0.985	1.046	1.052	1.014	1.261	1.089	1.176	1.073	1.214	1.300
958																																																																																					0.621	0.771	0.979	1.040	1.046	1.008	1.254	1.083	1.169	1.068	1.208	1.293
959																																																																																					0.619	0.767	0.974	1.034	1.040	1.002	1.246	1.076	1.163	1.062	1.201	1.286
960																																																																																					0.616	0.763	0.968	1.028	1.034	0.995	1.237	1.069	1.156	1.055	1.194	1.278
961																																																																																					0.612	0.758	0.961	1.021	1.026	0.988	1.229	1.062	1.148	1.048	1.186	1.270
962																																																																																					0.608	0.752	0.953	1.013	1.018	0.980	1.220	1.053	1.140	1.041	1.178	1.261
963																																																																																					0.605	0.748	0.947	1.006	1.011	0.973	1.210	1.046	1.133	1.034	1.170	1.254
964																																																																																					0.600	0.742	0.939	0.997	1.003	0.965	1.200	1.038	1.124	1.027	1.161	1.244
965																																																																																					0.596	0.736	0.932	0.989	0.995	0.957	1.191	1.028	1.115	1.019	1.153	1.234
966																																																																																					0.591	0.729	0.923	0.981	0.986	0.948	1.179	1.020	1.105	1.010	1.143	1.224
967																																																																																					0.587	0.724	0.916	0.973	0.978	0.941	1.170	1.012	1.097	1.003	1.135	1.216
968																																																																																					0.583	0.719	0.909	0.966	0.971	0.933	1.161	1.004	1.090	0.996	1.127	1.207
969																																																																																					0.579	0.713	0.901	0.958	0.963	0.926	1.152	0.996	1.082	0.989	1.118	1.199
970																																																																																					0.574	0.707	0.894	0.950	0.955	0.918	1.142	0.988	1.073	0.981	1.109	1.189
971																																																																																					0.570	0.702	0.887	0.942	0.947	0.910	1.133	0.980	1.065	0.973	1.101	1.180
972																																																																																					0.566	0.696	0.879	0.935	0.939	0.903	1.123	0.972	1.056	0.966	1.092	1.171
973																																																																																					0.561	0.690	0.872	0.926	0.931	0.895	1.113	0.963	1.047	0.958	1.083	1.161
974																																																																																					0.556	0.683	0.862	0.916	0.921	0.885	1.101	0.953	1.037	0.949	1.073	1.150
975																																																																																					0.550	0.675	0.852	0.906	0.911	0.875	1.089	0.942	1.025	0.938	1.061	1.138
976																																																																																					0.544	0.667	0.842	0.895	0.899	0.864	1.075	0.930	1.012	0.927	1.048	1.125
977																																																																																					0.539	0.661	0.834	0.887	0.891	0.856	1.065	0.921	1.003	0.919	1.039	1.115
978																																																																																					0.535	0.656	0.828	0.881	0.885	0.850	1.057	0.915	0.997	0.913	1.032	1.107
979																																																																																					0.533	0.654	0.824	0.876	0.880	0.846	1.052	0.910	0.994	0.909	1.027	1.102
980																																																																																					0.531	0.652	0.821	0.872	0.877	0.842	1.048	0.907	0.990	0.906	1.024	1.097
981																																																																																					0.528	0.648	0.816	0.867	0.872	0.837	1.041	0.902	0.986	0.901	1.019	1.092
982																																																																																					0.525	0.644	0.810	0.861	0.866	0.831	1.034	0.895	0.979	0.896	1.012	1.085
983																																																																																					0.519	0.636	0.801	0.851	0.856	0.821	1.022	0.885	0.968	0.886	1.000	1.073
984																																																																																					0.512	0.626	0.789	0.838	0.843	0.808	1.006	0.871	0.953	0.873	0.986	1.058
985																																																																																					0.505	0.618	0.778	0.827	0.831	0.797	0.993	0.860	0.941	0.862	0.973	1.045
986																																																																																					0.499	0.611	0.769	0.818	0.822	0.788	0.981	0.850	0.930	0.852	0.962	1.033
987																																																																																					0.493	0.603	0.759	0.808	0.811	0.778	0.969	0.839	0.918	0.842	0.951	1.021
988																																																																																					0.487	0.594	0.748	0.796	0.800	0.767	0.954	0.826	0.904	0.830	0.937	1.007
989																																																																																					0.480	0.586	0.739	0.786	0.789	0.757	0.942	0.816	0.893	0.820	0.925	0.995
990																																																																																					0.475	0.580	0.731	0.778	0.781	0.749	0.931	0.808	0.884	0.811	0.916	0.985
991																																																																																					0.472	0.575	0.725	0.771	0.775	0.744	0.925	0.802	0.879	0.806	0.910	0.977
992																																																																																					0.469	0.573	0.722	0.768	0.771	0.740	0.920	0.797	0.876	0.802	0.905	0.973
993																																																																																					0.468	0.571	0.718	0.764	0.768	0.736	0.916	0.794	0.873	0.799	0.902	0.969
994																																																																																					0.465	0.568	0.714	0.759	0.764	0.731	0.911	0.789	0.868	0.795	0.897	0.963
995																																																																																					0.461	0.564	0.708	0.753	0.757	0.725	0.903	0.783	0.862	0.789	0.890	0.956
996																																																																																					0.456	0.557	0.700	0.744	0.748	0.716	0.892	0.774	0.851	0.780	0.880	0.945
997																																																																																					0.449	0.548	0.689	0.733	0.737	0.706	0.878	0.762	0.839	0.768	0.867	0.931
998																																																																																					0.443	0.540	0.679	0.722	0.726	0.696	0.866	0.751	0.827	0.758	0.856	0.919
999																																																																																					0.438	0.533	0.671	0.714	0.717	0.687	0.855	0.742	0.818	0.749	0.845	0.908

结果
	1	2	3	4	5	6	7	8	9	10	11	12
A	?????	?????	?????	?????	?????	?????	?????	?????	?????	?????	?????	?????	Mean Max OD [Spectrum]
B	?????	?????	?????	?????	?????	?????	?????	?????	?????	?????	?????	?????	Mean Max OD [Spectrum]
C	?????	?????	?????	?????	?????	?????	?????	?????	?????	?????	?????	?????	Mean Max OD [Spectrum]
D	?????	?????	?????	?????	?????	?????	?????	?????	?????	?????	?????	?????	Mean Max OD [Spectrum]
E	?????	?????	?????	?????	?????	?????	?????	?????	?????	?????	?????	?????	Mean Max OD [Spectrum]
F	?????	?????	?????	?????	?????	?????	?????	?????	?????	?????	?????	?????	Mean Max OD [Spectrum]
G	?????	?????	?????	?????	?????	?????	?????	?????	?????	?????	?????	?????	Mean Max OD [Spectrum]
H	1.604	1.722	1.794	1.821	1.816	1.688	2.036	1.722	1.769	1.566	1.761	1.847	Mean Max OD [Spectrum]

