

软件版本	3.11.19



实验文件路径:	
方案文件路径:	



板编号	板 1
日期	2023/3/29
时间	10:13:04
检测仪类型:	Epoch 2
检测仪序列号:	2205170B
检测类型	检测仪

程序详细信息

板类型	96 WELL PLATE
完成后弹出板	
检测	吸收光 光谱
	H1..H12
	开始: 400 nm,  停止: 999 nm,  步骤: 1 nm
	检测前校准
	检测速度: 正常,  延迟: 100 msec,  测量值/数据点: 8

Spectrum

波长	A1	A2	A3	A4	A5	A6	A7	A8	A9	A10	A11	A12	B1	B2	B3	B4	B5	B6	B7	B8	B9	B10	B11	B12	C1	C2	C3	C4	C5	C6	C7	C8	C9	C10	C11	C12	D1	D2	D3	D4	D5	D6	D7	D8	D9	D10	D11	D12	E1	E2	E3	E4	E5	E6	E7	E8	E9	E10	E11	E12	F1	F2	F3	F4	F5	F6	F7	F8	F9	F10	F11	F12	G1	G2	G3	G4	G5	G6	G7	G8	G9	G10	G11	G12	H1	H2	H3	H4	H5	H6	H7	H8	H9	H10	H11	H12
400																																																																																					0.627	0.620	0.642	0.552	0.540	0.527	0.564	0.610	0.608	0.533	0.562	0.567
401																																																																																					0.626	0.619	0.641	0.550	0.539	0.526	0.563	0.608	0.606	0.532	0.561	0.566
402																																																																																					0.625	0.617	0.639	0.549	0.538	0.525	0.561	0.606	0.605	0.531	0.559	0.565
403																																																																																					0.623	0.616	0.637	0.547	0.536	0.523	0.559	0.605	0.603	0.529	0.558	0.563
404																																																																																					0.621	0.614	0.635	0.546	0.535	0.522	0.558	0.603	0.602	0.528	0.557	0.561
405																																																																																					0.620	0.613	0.634	0.544	0.534	0.521	0.557	0.602	0.600	0.527	0.555	0.560
406																																																																																					0.619	0.611	0.633	0.543	0.532	0.519	0.555	0.600	0.599	0.525	0.554	0.559
407																																																																																					0.617	0.610	0.631	0.542	0.531	0.518	0.554	0.599	0.597	0.524	0.553	0.558
408																																																																																					0.616	0.609	0.630	0.541	0.530	0.517	0.553	0.598	0.596	0.523	0.551	0.556
409																																																																																					0.615	0.607	0.628	0.539	0.528	0.516	0.552	0.596	0.595	0.522	0.550	0.555
410																																																																																					0.613	0.606	0.627	0.538	0.527	0.514	0.550	0.595	0.593	0.520	0.549	0.554
411																																																																																					0.612	0.605	0.625	0.537	0.526	0.513	0.549	0.593	0.592	0.519	0.547	0.553
412																																																																																					0.610	0.603	0.624	0.536	0.525	0.512	0.547	0.592	0.590	0.518	0.546	0.551
413																																																																																					0.609	0.602	0.623	0.535	0.523	0.511	0.546	0.590	0.589	0.517	0.545	0.550
414																																																																																					0.608	0.601	0.621	0.533	0.522	0.510	0.545	0.589	0.587	0.515	0.544	0.549
415																																																																																					0.606	0.599	0.620	0.532	0.521	0.508	0.543	0.588	0.586	0.514	0.542	0.547
416																																																																																					0.605	0.598	0.619	0.531	0.520	0.507	0.542	0.586	0.585	0.513	0.541	0.546
417																																																																																					0.604	0.597	0.617	0.530	0.519	0.506	0.541	0.585	0.583	0.512	0.540	0.545
418																																																																																					0.603	0.596	0.616	0.529	0.517	0.505	0.540	0.584	0.582	0.511	0.539	0.544
419																																																																																					0.602	0.595	0.615	0.528	0.516	0.504	0.538	0.582	0.581	0.510	0.538	0.543
420																																																																																					0.600	0.594	0.613	0.527	0.515	0.503	0.537	0.581	0.579	0.508	0.536	0.542
421																																																																																					0.599	0.593	0.612	0.526	0.514	0.502	0.536	0.580	0.578	0.507	0.535	0.540
422																																																																																					0.598	0.592	0.611	0.524	0.513	0.501	0.535	0.579	0.577	0.506	0.534	0.539
423																																																																																					0.597	0.590	0.610	0.524	0.512	0.500	0.534	0.578	0.576	0.505	0.533	0.539
424																																																																																					0.596	0.589	0.609	0.523	0.511	0.499	0.533	0.577	0.575	0.504	0.532	0.537
425																																																																																					0.595	0.588	0.608	0.522	0.510	0.498	0.532	0.575	0.574	0.503	0.531	0.536
426																																																																																					0.594	0.587	0.606	0.521	0.509	0.497	0.531	0.574	0.572	0.502	0.530	0.535
427																																																																																					0.593	0.586	0.605	0.520	0.508	0.496	0.530	0.573	0.571	0.501	0.529	0.534
428																																																																																					0.592	0.585	0.604	0.519	0.507	0.495	0.529	0.572	0.570	0.500	0.528	0.533
429																																																																																					0.591	0.584	0.603	0.517	0.506	0.494	0.528	0.571	0.569	0.499	0.527	0.532
430																																																																																					0.590	0.583	0.602	0.516	0.505	0.493	0.526	0.569	0.568	0.498	0.526	0.531
431																																																																																					0.589	0.583	0.601	0.516	0.504	0.492	0.526	0.568	0.567	0.498	0.525	0.530
432																																																																																					0.588	0.582	0.599	0.515	0.503	0.491	0.525	0.567	0.566	0.497	0.524	0.529
433																																																																																					0.587	0.581	0.598	0.514	0.502	0.490	0.524	0.566	0.564	0.496	0.523	0.528
434																																																																																					0.586	0.580	0.597	0.513	0.501	0.489	0.523	0.565	0.563	0.495	0.522	0.527
435																																																																																					0.585	0.579	0.596	0.512	0.500	0.488	0.522	0.564	0.562	0.494	0.521	0.526
436																																																																																					0.584	0.578	0.595	0.511	0.499	0.487	0.521	0.563	0.561	0.493	0.520	0.525
437																																																																																					0.583	0.577	0.594	0.510	0.498	0.486	0.520	0.562	0.560	0.492	0.519	0.524
438																																																																																					0.582	0.576	0.593	0.509	0.497	0.485	0.519	0.561	0.559	0.491	0.518	0.523
439																																																																																					0.581	0.575	0.592	0.508	0.496	0.484	0.518	0.560	0.558	0.490	0.517	0.522
440																																																																																					0.580	0.574	0.591	0.507	0.495	0.483	0.517	0.559	0.557	0.489	0.516	0.521
441																																																																																					0.579	0.573	0.589	0.506	0.495	0.483	0.516	0.558	0.556	0.488	0.515	0.520
442																																																																																					0.579	0.573	0.589	0.505	0.494	0.482	0.515	0.557	0.555	0.488	0.515	0.520
443																																																																																					0.578	0.572	0.588	0.504	0.493	0.481	0.514	0.556	0.554	0.487	0.514	0.519
444																																																																																					0.577	0.571	0.587	0.503	0.492	0.480	0.513	0.555	0.553	0.486	0.513	0.518
445																																																																																					0.576	0.570	0.586	0.503	0.491	0.479	0.512	0.554	0.552	0.485	0.512	0.517
446																																																																																					0.576	0.570	0.585	0.502	0.490	0.479	0.512	0.553	0.551	0.485	0.511	0.516
447																																																																																					0.575	0.569	0.584	0.501	0.490	0.478	0.511	0.552	0.550	0.484	0.511	0.516
448																																																																																					0.575	0.569	0.583	0.501	0.489	0.477	0.510	0.551	0.550	0.483	0.510	0.515
449																																																																																					0.574	0.568	0.582	0.500	0.488	0.476	0.509	0.551	0.549	0.483	0.509	0.514
450																																																																																					0.573	0.567	0.581	0.499	0.488	0.476	0.508	0.550	0.548	0.482	0.508	0.513
451																																																																																					0.573	0.567	0.580	0.498	0.487	0.475	0.508	0.549	0.547	0.481	0.508	0.513
452																																																																																					0.572	0.566	0.580	0.498	0.486	0.474	0.507	0.548	0.546	0.481	0.507	0.512
453																																																																																					0.572	0.566	0.579	0.497	0.485	0.474	0.506	0.547	0.545	0.480	0.506	0.511
454																																																																																					0.571	0.566	0.578	0.496	0.485	0.473	0.506	0.547	0.545	0.479	0.506	0.511
455																																																																																					0.571	0.565	0.577	0.496	0.484	0.472	0.505	0.546	0.544	0.479	0.505	0.510
456																																																																																					0.571	0.565	0.577	0.495	0.484	0.472	0.504	0.545	0.543	0.478	0.504	0.510
457																																																																																					0.570	0.565	0.576	0.494	0.483	0.471	0.504	0.545	0.543	0.478	0.504	0.509
458																																																																																					0.570	0.565	0.576	0.494	0.483	0.471	0.503	0.544	0.542	0.477	0.504	0.509
459																																																																																					0.570	0.565	0.575	0.494	0.482	0.470	0.503	0.544	0.542	0.477	0.503	0.508
460																																																																																					0.570	0.564	0.574	0.493	0.482	0.470	0.502	0.543	0.541	0.477	0.503	0.508
461																																																																																					0.570	0.564	0.574	0.493	0.481	0.470	0.502	0.543	0.541	0.476	0.502	0.508
462																																																																																					0.570	0.564	0.574	0.492	0.481	0.469	0.502	0.543	0.541	0.476	0.502	0.507
463																																																																																					0.570	0.564	0.573	0.492	0.481	0.469	0.502	0.542	0.540	0.476	0.502	0.507
464																																																																																					0.570	0.565	0.573	0.492	0.481	0.469	0.501	0.542	0.540	0.476	0.502	0.507
465																																																																																					0.570	0.565	0.573	0.492	0.481	0.469	0.501	0.542	0.540	0.476	0.502	0.507
466																																																																																					0.571	0.565	0.573	0.491	0.480	0.469	0.501	0.542	0.540	0.475	0.501	0.507
467																																																																																					0.571	0.566	0.573	0.492	0.480	0.469	0.501	0.542	0.540	0.476	0.502	0.507
468																																																																																					0.572	0.566	0.573	0.491	0.481	0.469	0.501	0.542	0.540	0.476	0.502	0.507
469																																																																																					0.572	0.567	0.573	0.492	0.481	0.469	0.501	0.542	0.540	0.476	0.502	0.507
470																																																																																					0.573	0.567	0.573	0.492	0.481	0.469	0.501	0.542	0.540	0.476	0.502	0.508
471																																																																																					0.574	0.568	0.573	0.492	0.481	0.469	0.502	0.542	0.540	0.476	0.502	0.508
472																																																																																					0.575	0.569	0.574	0.492	0.481	0.470	0.502	0.543	0.541	0.477	0.503	0.509
473																																																																																					0.576	0.570	0.574	0.493	0.482	0.470	0.503	0.543	0.541	0.477	0.503	0.509
474																																																																																					0.577	0.571	0.575	0.493	0.482	0.471	0.503	0.544	0.542	0.478	0.504	0.510
475																																																																																					0.579	0.573	0.576	0.494	0.483	0.471	0.504	0.545	0.543	0.479	0.505	0.511
476																																																																																					0.580	0.575	0.577	0.495	0.484	0.472	0.505	0.546	0.544	0.480	0.506	0.512
477																																																																																					0.582	0.576	0.578	0.496	0.485	0.473	0.506	0.547	0.545	0.481	0.507	0.513
478																																																																																					0.584	0.579	0.580	0.497	0.486	0.474	0.507	0.549	0.546	0.482	0.508	0.514
479																																																																																					0.587	0.581	0.581	0.498	0.488	0.476	0.509	0.550	0.548	0.483	0.510	0.516
480																																																																																					0.589	0.583	0.583	0.499	0.489	0.477	0.510	0.552	0.549	0.485	0.512	0.518
481																																																																																					0.593	0.587	0.586	0.501	0.491	0.479	0.512	0.554	0.551	0.487	0.514	0.520
482																																																																																					0.596	0.590	0.589	0.503	0.494	0.481	0.515	0.557	0.554	0.489	0.516	0.522
483																																																																																					0.599	0.593	0.590	0.505	0.495	0.483	0.517	0.559	0.556	0.491	0.518	0.524
484																																																																																					0.602	0.595	0.592	0.506	0.497	0.485	0.518	0.561	0.558	0.492	0.520	0.526
485																																																																																					0.605	0.598	0.595	0.508	0.499	0.487	0.520	0.563	0.560	0.494	0.522	0.528
486																																																																																					0.608	0.602	0.598	0.510	0.501	0.489	0.523	0.566	0.563	0.496	0.524	0.531
487																																																																																					0.614	0.607	0.602	0.513	0.505	0.492	0.526	0.570	0.566	0.500	0.528	0.535
488																																																																																					0.618	0.611	0.605	0.516	0.508	0.495	0.529	0.573	0.569	0.502	0.531	0.538
489																																																																																					0.622	0.615	0.608	0.518	0.511	0.498	0.532	0.576	0.573	0.505	0.534	0.541
490																																																																																					0.628	0.621	0.613	0.522	0.514	0.501	0.536	0.580	0.577	0.509	0.538	0.545
491																																																																																					0.635	0.627	0.618	0.526	0.518	0.505	0.540	0.585	0.581	0.513	0.542	0.549
492																																																																																					0.640	0.632	0.622	0.529	0.522	0.508	0.543	0.589	0.585	0.516	0.545	0.553
493																																																																																					0.645	0.638	0.626	0.532	0.525	0.512	0.547	0.593	0.589	0.519	0.549	0.557
494																																																																																					0.652	0.644	0.631	0.536	0.529	0.516	0.551	0.597	0.593	0.523	0.553	0.561
495																																																																																					0.660	0.652	0.637	0.541	0.535	0.521	0.556	0.603	0.598	0.528	0.558	0.567
496																																																																																					0.669	0.661	0.644	0.546	0.540	0.526	0.562	0.609	0.604	0.533	0.564	0.572
497																																																																																					0.677	0.669	0.650	0.550	0.545	0.531	0.567	0.614	0.610	0.538	0.569	0.577
498																																																																																					0.684	0.676	0.654	0.554	0.549	0.534	0.571	0.618	0.613	0.542	0.573	0.581
499																																																																																					0.691	0.682	0.659	0.557	0.553	0.538	0.575	0.623	0.618	0.545	0.577	0.585
500																																																																																					0.698	0.690	0.665	0.561	0.557	0.542	0.579	0.627	0.623	0.549	0.581	0.590
501																																																																																					0.707	0.698	0.670	0.565	0.561	0.546	0.583	0.632	0.627	0.554	0.586	0.594
502																																																																																					0.715	0.706	0.676	0.569	0.566	0.550	0.588	0.637	0.632	0.558	0.590	0.599
503																																																																																					0.723	0.714	0.681	0.573	0.570	0.554	0.592	0.641	0.636	0.561	0.594	0.603
504																																																																																					0.731	0.723	0.686	0.577	0.574	0.558	0.596	0.646	0.640	0.565	0.598	0.608
505																																																																																					0.739	0.730	0.690	0.580	0.578	0.561	0.599	0.650	0.644	0.568	0.602	0.611
506																																																																																					0.747	0.738	0.695	0.583	0.581	0.564	0.603	0.653	0.647	0.572	0.605	0.615
507																																																																																					0.754	0.745	0.699	0.585	0.584	0.567	0.605	0.656	0.650	0.574	0.608	0.618
508																																																																																					0.760	0.752	0.702	0.588	0.587	0.569	0.608	0.659	0.653	0.577	0.611	0.621
509																																																																																					0.767	0.758	0.705	0.590	0.589	0.571	0.610	0.662	0.655	0.579	0.613	0.623
510																																																																																					0.774	0.765	0.708	0.592	0.591	0.573	0.612	0.664	0.657	0.581	0.615	0.625
511																																																																																					0.779	0.770	0.710	0.593	0.592	0.574	0.613	0.665	0.658	0.582	0.617	0.627
512																																																																																					0.784	0.775	0.711	0.593	0.593	0.575	0.614	0.666	0.658	0.583	0.617	0.628
513																																																																																					0.788	0.779	0.712	0.593	0.594	0.575	0.614	0.666	0.659	0.583	0.618	0.629
514																																																																																					0.791	0.783	0.712	0.594	0.594	0.575	0.614	0.666	0.658	0.583	0.618	0.629
515																																																																																					0.794	0.786	0.712	0.593	0.593	0.574	0.613	0.666	0.658	0.582	0.618	0.629
516																																																																																					0.796	0.789	0.711	0.592	0.592	0.574	0.612	0.665	0.657	0.582	0.617	0.628
517																																																																																					0.798	0.791	0.710	0.590	0.591	0.572	0.610	0.663	0.655	0.580	0.616	0.627
518																																																																																					0.799	0.792	0.708	0.589	0.590	0.571	0.609	0.662	0.653	0.579	0.615	0.626
519																																																																																					0.799	0.793	0.706	0.587	0.588	0.569	0.607	0.660	0.651	0.578	0.613	0.625
520																																																																																					0.799	0.793	0.704	0.585	0.586	0.567	0.605	0.657	0.649	0.576	0.612	0.623
521																																																																																					0.799	0.792	0.702	0.583	0.584	0.565	0.602	0.655	0.646	0.573	0.610	0.621
522																																																																																					0.798	0.792	0.698	0.580	0.581	0.562	0.599	0.652	0.643	0.571	0.607	0.619
523																																																																																					0.796	0.790	0.695	0.577	0.577	0.558	0.596	0.648	0.639	0.568	0.604	0.616
524																																																																																					0.794	0.788	0.691	0.573	0.574	0.555	0.592	0.644	0.635	0.565	0.600	0.612
525																																																																																					0.791	0.786	0.686	0.570	0.570	0.551	0.588	0.640	0.631	0.561	0.597	0.609
526																																																																																					0.788	0.783	0.682	0.566	0.566	0.547	0.584	0.635	0.627	0.557	0.593	0.605
527																																																																																					0.784	0.780	0.677	0.562	0.562	0.543	0.580	0.631	0.622	0.553	0.589	0.601
528																																																																																					0.781	0.777	0.673	0.558	0.559	0.540	0.576	0.627	0.618	0.550	0.586	0.598
529																																																																																					0.778	0.774	0.669	0.555	0.555	0.537	0.572	0.623	0.615	0.547	0.583	0.595
530																																																																																					0.774	0.771	0.664	0.551	0.551	0.533	0.569	0.619	0.611	0.544	0.579	0.592
531																																																																																					0.770	0.767	0.659	0.547	0.547	0.529	0.564	0.614	0.606	0.539	0.575	0.587
532																																																																																					0.765	0.762	0.653	0.541	0.541	0.523	0.558	0.608	0.600	0.534	0.570	0.582
533																																																																																					0.760	0.757	0.647	0.537	0.536	0.519	0.553	0.603	0.595	0.530	0.565	0.577
534																																																																																					0.756	0.753	0.642	0.532	0.532	0.514	0.549	0.598	0.590	0.525	0.560	0.572
535																																																																																					0.751	0.749	0.635	0.528	0.527	0.509	0.544	0.592	0.584	0.520	0.555	0.567
536																																																																																					0.746	0.744	0.629	0.523	0.521	0.504	0.538	0.586	0.578	0.516	0.550	0.562
537																																																																																					0.741	0.739	0.623	0.517	0.516	0.499	0.532	0.580	0.572	0.510	0.545	0.557
538																																																																																					0.736	0.734	0.616	0.512	0.510	0.493	0.527	0.574	0.566	0.505	0.539	0.551
539																																																																																					0.731	0.730	0.610	0.507	0.505	0.488	0.521	0.568	0.560	0.500	0.534	0.546
540																																																																																					0.726	0.724	0.602	0.501	0.499	0.482	0.515	0.561	0.554	0.494	0.527	0.539
541																																																																																					0.721	0.720	0.596	0.496	0.494	0.477	0.509	0.555	0.548	0.489	0.522	0.534
542																																																																																					0.717	0.716	0.590	0.491	0.489	0.472	0.504	0.550	0.543	0.484	0.517	0.528
543																																																																																					0.713	0.713	0.584	0.487	0.484	0.468	0.500	0.545	0.538	0.480	0.512	0.523
544																																																																																					0.709	0.709	0.578	0.481	0.478	0.462	0.494	0.538	0.532	0.474	0.506	0.517
545																																																																																					0.704	0.704	0.570	0.475	0.471	0.456	0.487	0.531	0.525	0.468	0.500	0.510
546																																																																																					0.700	0.701	0.563	0.470	0.465	0.450	0.481	0.524	0.518	0.462	0.493	0.504
547																																																																																					0.696	0.697	0.556	0.464	0.460	0.445	0.475	0.517	0.512	0.456	0.487	0.498
548																																																																																					0.693	0.694	0.549	0.459	0.454	0.439	0.469	0.511	0.506	0.451	0.481	0.491
549																																																																																					0.690	0.691	0.542	0.454	0.448	0.434	0.463	0.505	0.500	0.445	0.475	0.485
550																																																																																					0.686	0.688	0.535	0.448	0.442	0.428	0.457	0.497	0.493	0.439	0.469	0.478
551																																																																																					0.684	0.685	0.529	0.443	0.436	0.422	0.451	0.491	0.486	0.434	0.463	0.472
552																																																																																					0.681	0.682	0.521	0.437	0.430	0.416	0.445	0.484	0.479	0.427	0.456	0.465
553																																																																																					0.678	0.680	0.514	0.431	0.424	0.411	0.439	0.477	0.473	0.422	0.450	0.459
554																																																																																					0.676	0.678	0.508	0.426	0.418	0.405	0.432	0.470	0.467	0.416	0.444	0.452
555																																																																																					0.675	0.677	0.502	0.421	0.413	0.400	0.427	0.464	0.461	0.410	0.438	0.446
556																																																																																					0.673	0.675	0.494	0.415	0.407	0.394	0.421	0.457	0.454	0.404	0.431	0.439
557																																																																																					0.672	0.674	0.488	0.410	0.401	0.389	0.415	0.451	0.448	0.398	0.425	0.433
558																																																																																					0.671	0.673	0.481	0.405	0.395	0.383	0.409	0.444	0.441	0.392	0.418	0.426
559																																																																																					0.670	0.673	0.474	0.400	0.389	0.377	0.402	0.437	0.434	0.386	0.412	0.418
560																																																																																					0.670	0.673	0.468	0.394	0.383	0.371	0.396	0.430	0.427	0.380	0.405	0.412
561																																																																																					0.670	0.673	0.462	0.389	0.378	0.366	0.391	0.424	0.421	0.374	0.399	0.406
562																																																																																					0.670	0.673	0.456	0.385	0.373	0.361	0.386	0.418	0.416	0.369	0.393	0.399
563																																																																																					0.671	0.674	0.452	0.381	0.369	0.357	0.381	0.413	0.411	0.365	0.389	0.395
564																																																																																					0.672	0.675	0.446	0.377	0.363	0.352	0.376	0.407	0.405	0.359	0.383	0.388
565																																																																																					0.674	0.677	0.440	0.371	0.358	0.347	0.370	0.401	0.399	0.353	0.377	0.382
566																																																																																					0.675	0.678	0.434	0.367	0.353	0.343	0.365	0.395	0.394	0.349	0.372	0.376
567																																																																																					0.678	0.680	0.429	0.363	0.349	0.338	0.361	0.390	0.388	0.344	0.366	0.370
568																																																																																					0.680	0.683	0.425	0.359	0.345	0.334	0.356	0.385	0.383	0.339	0.361	0.365
569																																																																																					0.683	0.686	0.420	0.355	0.340	0.330	0.351	0.379	0.378	0.334	0.356	0.360
570																																																																																					0.686	0.689	0.415	0.352	0.336	0.326	0.347	0.375	0.373	0.330	0.351	0.354
571																																																																																					0.690	0.692	0.410	0.348	0.331	0.321	0.342	0.369	0.368	0.325	0.345	0.348
572																																																																																					0.693	0.696	0.406	0.344	0.328	0.317	0.338	0.364	0.363	0.320	0.340	0.343
573																																																																																					0.697	0.700	0.402	0.341	0.324	0.314	0.334	0.360	0.358	0.316	0.336	0.339
574																																																																																					0.702	0.704	0.398	0.338	0.320	0.310	0.330	0.355	0.354	0.312	0.332	0.334
575																																																																																					0.707	0.709	0.394	0.334	0.317	0.306	0.326	0.351	0.349	0.308	0.327	0.329
576																																																																																					0.711	0.713	0.391	0.331	0.313	0.303	0.323	0.347	0.346	0.304	0.323	0.325
577																																																																																					0.716	0.718	0.388	0.329	0.310	0.300	0.319	0.343	0.342	0.301	0.319	0.321
578																																																																																					0.722	0.724	0.384	0.325	0.307	0.297	0.316	0.338	0.337	0.297	0.315	0.316
579																																																																																					0.728	0.730	0.381	0.323	0.303	0.293	0.312	0.334	0.333	0.293	0.311	0.311
580																																																																																					0.735	0.737	0.377	0.320	0.300	0.290	0.308	0.330	0.329	0.289	0.307	0.307
581																																																																																					0.741	0.743	0.374	0.317	0.297	0.287	0.305	0.326	0.326	0.286	0.303	0.303
582																																																																																					0.748	0.750	0.371	0.315	0.294	0.284	0.302	0.323	0.322	0.282	0.299	0.299
583																																																																																					0.756	0.757	0.369	0.312	0.292	0.282	0.299	0.319	0.319	0.279	0.295	0.295
584																																																																																					0.764	0.764	0.366	0.310	0.289	0.279	0.296	0.316	0.315	0.276	0.292	0.291
585																																																																																					0.772	0.772	0.363	0.307	0.286	0.276	0.293	0.312	0.311	0.273	0.288	0.287
586																																																																																					0.780	0.780	0.361	0.305	0.284	0.274	0.290	0.309	0.308	0.270	0.285	0.283
587																																																																																					0.789	0.789	0.359	0.303	0.281	0.271	0.288	0.306	0.305	0.267	0.282	0.280
588																																																																																					0.797	0.796	0.356	0.301	0.279	0.269	0.285	0.303	0.302	0.264	0.279	0.277
589																																																																																					0.806	0.805	0.355	0.299	0.277	0.267	0.283	0.300	0.300	0.261	0.276	0.274
590																																																																																					0.815	0.813	0.353	0.298	0.275	0.265	0.281	0.298	0.297	0.259	0.273	0.271
591																																																																																					0.825	0.822	0.351	0.296	0.273	0.263	0.278	0.295	0.294	0.257	0.270	0.268
592																																																																																					0.833	0.829	0.350	0.294	0.271	0.261	0.276	0.293	0.292	0.254	0.268	0.265
593																																																																																					0.842	0.838	0.348	0.293	0.270	0.260	0.274	0.290	0.290	0.252	0.266	0.263
594																																																																																					0.852	0.847	0.347	0.292	0.268	0.258	0.273	0.288	0.288	0.250	0.263	0.260
595																																																																																					0.863	0.857	0.346	0.290	0.266	0.256	0.271	0.286	0.285	0.248	0.261	0.257
596																																																																																					0.872	0.865	0.345	0.289	0.265	0.255	0.269	0.284	0.283	0.246	0.259	0.255
597																																																																																					0.881	0.873	0.344	0.288	0.264	0.253	0.268	0.282	0.281	0.244	0.257	0.253
598																																																																																					0.890	0.882	0.343	0.287	0.263	0.252	0.266	0.281	0.280	0.242	0.255	0.251
599																																																																																					0.900	0.890	0.342	0.286	0.261	0.251	0.265	0.279	0.278	0.241	0.253	0.249
600																																																																																					0.911	0.900	0.342	0.286	0.260	0.250	0.263	0.277	0.276	0.239	0.251	0.246
601																																																																																					0.923	0.911	0.341	0.285	0.259	0.249	0.262	0.275	0.275	0.237	0.249	0.244
602																																																																																					0.934	0.920	0.341	0.284	0.258	0.247	0.261	0.274	0.273	0.236	0.247	0.242
603																																																																																					0.944	0.929	0.341	0.284	0.258	0.247	0.260	0.273	0.272	0.234	0.246	0.240
604																																																																																					0.953	0.937	0.341	0.283	0.257	0.246	0.259	0.271	0.271	0.233	0.244	0.239
605																																																																																					0.962	0.944	0.341	0.283	0.256	0.245	0.258	0.270	0.269	0.232	0.243	0.237
606																																																																																					0.971	0.952	0.341	0.282	0.256	0.245	0.257	0.269	0.268	0.231	0.241	0.236
607																																																																																					0.980	0.960	0.342	0.282	0.255	0.244	0.256	0.268	0.267	0.230	0.240	0.234
608																																																																																					0.991	0.969	0.342	0.282	0.255	0.244	0.256	0.267	0.266	0.229	0.239	0.233
609																																																																																					1.001	0.977	0.343	0.282	0.255	0.243	0.255	0.266	0.265	0.228	0.238	0.232
610																																																																																					1.008	0.983	0.344	0.282	0.255	0.243	0.254	0.266	0.265	0.227	0.237	0.230
611																																																																																					1.016	0.989	0.344	0.282	0.255	0.242	0.254	0.265	0.264	0.226	0.236	0.229
612																																																																																					1.025	0.997	0.345	0.282	0.255	0.242	0.254	0.264	0.263	0.225	0.235	0.228
613																																																																																					1.034	1.003	0.346	0.282	0.254	0.242	0.253	0.264	0.262	0.224	0.234	0.227
614																																																																																					1.042	1.010	0.348	0.283	0.255	0.242	0.253	0.263	0.262	0.224	0.233	0.226
615																																																																																					1.050	1.016	0.349	0.283	0.255	0.242	0.253	0.263	0.261	0.223	0.232	0.225
616																																																																																					1.058	1.022	0.351	0.284	0.255	0.242	0.253	0.263	0.261	0.223	0.232	0.224
617																																																																																					1.065	1.027	0.353	0.284	0.256	0.242	0.253	0.262	0.261	0.222	0.231	0.223
618																																																																																					1.072	1.032	0.354	0.285	0.256	0.242	0.253	0.262	0.260	0.222	0.230	0.222
619																																																																																					1.078	1.036	0.357	0.286	0.257	0.243	0.253	0.262	0.260	0.221	0.230	0.222
620																																																																																					1.084	1.040	0.359	0.287	0.257	0.243	0.253	0.262	0.260	0.221	0.229	0.221
621																																																																																					1.090	1.044	0.361	0.287	0.258	0.244	0.253	0.262	0.260	0.221	0.229	0.220
622																																																																																					1.095	1.047	0.364	0.289	0.259	0.244	0.254	0.262	0.260	0.220	0.228	0.220
623																																																																																					1.100	1.050	0.367	0.290	0.260	0.245	0.254	0.262	0.260	0.220	0.228	0.219
624																																																																																					1.103	1.052	0.370	0.291	0.261	0.245	0.255	0.262	0.260	0.220	0.228	0.219
625																																																																																					1.107	1.054	0.373	0.292	0.262	0.246	0.255	0.263	0.260	0.220	0.228	0.218
626																																																																																					1.110	1.055	0.376	0.294	0.263	0.247	0.256	0.263	0.261	0.220	0.227	0.218
627																																																																																					1.112	1.055	0.380	0.295	0.265	0.248	0.256	0.264	0.261	0.220	0.227	0.218
628																																																																																					1.114	1.056	0.383	0.297	0.266	0.249	0.257	0.264	0.262	0.220	0.227	0.218
629																																																																																					1.115	1.055	0.387	0.299	0.267	0.250	0.258	0.265	0.262	0.220	0.227	0.218
630																																																																																					1.116	1.054	0.391	0.301	0.269	0.251	0.259	0.266	0.263	0.221	0.227	0.217
631																																																																																					1.117	1.054	0.395	0.302	0.271	0.253	0.260	0.266	0.263	0.221	0.227	0.217
632																																																																																					1.116	1.051	0.399	0.304	0.272	0.254	0.261	0.267	0.264	0.221	0.228	0.217
633																																																																																					1.116	1.050	0.404	0.307	0.274	0.255	0.262	0.268	0.265	0.222	0.228	0.217
634																																																																																					1.115	1.047	0.408	0.309	0.276	0.257	0.264	0.269	0.265	0.222	0.228	0.217
635																																																																																					1.113	1.044	0.414	0.311	0.279	0.258	0.265	0.270	0.266	0.223	0.229	0.218
636																																																																																					1.110	1.040	0.419	0.314	0.281	0.260	0.266	0.271	0.267	0.223	0.229	0.218
637																																																																																					1.108	1.036	0.424	0.316	0.283	0.262	0.268	0.273	0.268	0.224	0.229	0.218
638																																																																																					1.104	1.032	0.430	0.319	0.286	0.264	0.270	0.274	0.269	0.225	0.230	0.218
639																																																																																					1.101	1.027	0.436	0.322	0.288	0.266	0.271	0.276	0.271	0.225	0.231	0.219
640																																																																																					1.097	1.022	0.443	0.325	0.291	0.268	0.273	0.277	0.272	0.226	0.231	0.219
641																																																																																					1.092	1.017	0.449	0.329	0.294	0.270	0.275	0.279	0.274	0.227	0.232	0.220
642																																																																																					1.087	1.011	0.457	0.332	0.297	0.273	0.277	0.281	0.275	0.228	0.233	0.220
643																																																																																					1.081	1.004	0.464	0.336	0.300	0.275	0.279	0.283	0.277	0.229	0.234	0.221
644																																																																																					1.076	0.998	0.471	0.339	0.304	0.278	0.281	0.284	0.278	0.230	0.234	0.222
645																																																																																					1.069	0.991	0.479	0.343	0.307	0.280	0.284	0.287	0.280	0.231	0.235	0.222
646																																																																																					1.063	0.984	0.487	0.347	0.311	0.283	0.286	0.289	0.282	0.233	0.236	0.223
647																																																																																					1.056	0.976	0.495	0.351	0.315	0.286	0.289	0.291	0.284	0.234	0.238	0.224
648																																																																																					1.049	0.969	0.504	0.356	0.319	0.289	0.292	0.294	0.286	0.235	0.239	0.225
649																																																																																					1.041	0.960	0.513	0.361	0.323	0.293	0.295	0.296	0.289	0.237	0.240	0.226
650																																																																																					1.033	0.952	0.522	0.365	0.328	0.296	0.298	0.299	0.291	0.238	0.241	0.227
651																																																																																					1.025	0.944	0.532	0.370	0.332	0.300	0.301	0.302	0.293	0.240	0.243	0.228
652																																																																																					1.018	0.936	0.541	0.375	0.336	0.303	0.304	0.304	0.296	0.241	0.244	0.229
653																																																																																					1.009	0.928	0.551	0.380	0.341	0.307	0.307	0.307	0.298	0.243	0.246	0.230
654																																																																																					1.001	0.919	0.561	0.386	0.346	0.311	0.311	0.310	0.301	0.245	0.247	0.232
655																																																																																					0.991	0.910	0.572	0.391	0.351	0.315	0.315	0.314	0.304	0.247	0.249	0.233
656																																																																																					0.983	0.901	0.584	0.397	0.357	0.319	0.319	0.317	0.307	0.249	0.251	0.234
657																																																																																					0.973	0.891	0.596	0.404	0.363	0.324	0.323	0.321	0.310	0.251	0.253	0.236
658																																																																																					0.964	0.882	0.608	0.410	0.369	0.329	0.327	0.325	0.313	0.253	0.255	0.237
659																																																																																					0.954	0.872	0.620	0.417	0.375	0.334	0.331	0.329	0.317	0.256	0.257	0.239
660																																																																																					0.945	0.864	0.632	0.423	0.381	0.338	0.335	0.332	0.320	0.258	0.259	0.241
661																																																																																					0.934	0.853	0.645	0.430	0.388	0.344	0.340	0.337	0.324	0.260	0.261	0.243
662																																																																																					0.924	0.844	0.659	0.438	0.395	0.349	0.345	0.341	0.328	0.263	0.264	0.245
663																																																																																					0.915	0.834	0.671	0.445	0.401	0.354	0.350	0.345	0.331	0.266	0.266	0.246
664																																																																																					0.905	0.825	0.685	0.453	0.408	0.360	0.355	0.350	0.335	0.268	0.268	0.248
665																																																																																					0.895	0.815	0.699	0.461	0.416	0.366	0.360	0.355	0.340	0.271	0.271	0.251
666																																																																																					0.885	0.806	0.713	0.468	0.423	0.372	0.365	0.360	0.344	0.274	0.274	0.253
667																																																																																					0.874	0.795	0.729	0.477	0.431	0.379	0.372	0.365	0.349	0.278	0.277	0.255
668																																																																																					0.863	0.785	0.745	0.486	0.440	0.386	0.378	0.371	0.354	0.281	0.280	0.258
669																																																																																					0.852	0.775	0.761	0.496	0.449	0.392	0.385	0.377	0.359	0.284	0.283	0.261
670																																																																																					0.841	0.765	0.777	0.505	0.457	0.400	0.391	0.383	0.364	0.288	0.286	0.263
671																																																																																					0.831	0.755	0.793	0.515	0.467	0.407	0.398	0.389	0.369	0.292	0.289	0.266
672																																																																																					0.820	0.745	0.809	0.524	0.476	0.414	0.404	0.395	0.374	0.295	0.293	0.269
673																																																																																					0.809	0.735	0.826	0.535	0.485	0.422	0.411	0.401	0.381	0.299	0.297	0.272
674																																																																																					0.798	0.725	0.845	0.546	0.496	0.431	0.419	0.408	0.387	0.304	0.301	0.275
675																																																																																					0.788	0.715	0.862	0.556	0.506	0.439	0.427	0.415	0.393	0.308	0.305	0.278
676																																																																																					0.777	0.705	0.881	0.568	0.517	0.448	0.435	0.423	0.400	0.313	0.309	0.282
677																																																																																					0.766	0.695	0.899	0.579	0.528	0.457	0.443	0.430	0.406	0.317	0.313	0.286
678																																																																																					0.756	0.686	0.917	0.590	0.539	0.466	0.452	0.438	0.413	0.322	0.318	0.289
679																																																																																					0.745	0.676	0.936	0.603	0.550	0.476	0.461	0.446	0.420	0.327	0.322	0.293
680																																																																																					0.734	0.666	0.956	0.615	0.562	0.486	0.470	0.455	0.428	0.333	0.327	0.297
681																																																																																					0.723	0.656	0.976	0.628	0.575	0.496	0.479	0.464	0.436	0.338	0.332	0.302
682																																																																																					0.712	0.647	0.995	0.640	0.587	0.506	0.489	0.473	0.444	0.344	0.337	0.306
683																																																																																					0.702	0.638	1.014	0.653	0.599	0.516	0.498	0.481	0.452	0.349	0.342	0.310
684																																																																																					0.692	0.629	1.033	0.666	0.612	0.527	0.508	0.491	0.460	0.355	0.348	0.315
685																																																																																					0.681	0.619	1.055	0.681	0.626	0.539	0.519	0.501	0.469	0.362	0.354	0.320
686																																																																																					0.670	0.609	1.076	0.695	0.640	0.552	0.531	0.512	0.479	0.368	0.360	0.325
687																																																																																					0.659	0.599	1.098	0.711	0.655	0.564	0.543	0.523	0.489	0.376	0.367	0.331
688																																																																																					0.649	0.591	1.119	0.726	0.670	0.577	0.555	0.534	0.499	0.383	0.374	0.337
689																																																																																					0.639	0.581	1.140	0.741	0.685	0.589	0.567	0.546	0.509	0.390	0.380	0.342
690																																																																																					0.629	0.573	1.161	0.755	0.699	0.602	0.579	0.557	0.520	0.397	0.387	0.348
691																																																																																					0.620	0.565	1.180	0.770	0.714	0.614	0.591	0.568	0.530	0.405	0.394	0.354
692																																																																																					0.610	0.556	1.201	0.785	0.729	0.628	0.604	0.580	0.541	0.413	0.402	0.360
693																																																																																					0.600	0.547	1.222	0.802	0.745	0.642	0.618	0.594	0.553	0.421	0.409	0.367
694																																																																																					0.592	0.539	1.243	0.817	0.761	0.656	0.631	0.606	0.564	0.429	0.417	0.374
695																																																																																					0.582	0.531	1.264	0.833	0.777	0.670	0.644	0.620	0.577	0.438	0.425	0.381
696																																																																																					0.573	0.523	1.286	0.851	0.794	0.685	0.659	0.634	0.589	0.447	0.434	0.388
697																																																																																					0.563	0.514	1.308	0.868	0.812	0.702	0.675	0.649	0.603	0.458	0.444	0.396
698																																																																																					0.555	0.507	1.327	0.884	0.828	0.715	0.689	0.662	0.615	0.466	0.452	0.403
699																																																																																					0.547	0.500	1.346	0.899	0.844	0.730	0.703	0.675	0.628	0.475	0.461	0.411
700																																																																																					0.539	0.492	1.364	0.915	0.860	0.744	0.716	0.689	0.640	0.484	0.469	0.418
701																																																																																					0.531	0.485	1.384	0.932	0.877	0.760	0.732	0.705	0.654	0.495	0.479	0.427
702																																																																																					0.522	0.478	1.404	0.949	0.894	0.777	0.748	0.720	0.669	0.505	0.489	0.436
703																																																																																					0.514	0.470	1.425	0.968	0.914	0.794	0.765	0.737	0.685	0.517	0.500	0.445
704																																																																																					0.506	0.464	1.444	0.985	0.931	0.810	0.781	0.753	0.699	0.528	0.510	0.454
705																																																																																					0.498	0.457	1.462	1.002	0.949	0.826	0.798	0.769	0.715	0.539	0.521	0.464
706																																																																																					0.491	0.450	1.480	1.018	0.967	0.843	0.814	0.785	0.730	0.551	0.532	0.473
707																																																																																					0.483	0.443	1.500	1.036	0.985	0.860	0.831	0.802	0.747	0.563	0.543	0.483
708																																																																																					0.476	0.437	1.517	1.053	1.002	0.876	0.848	0.819	0.761	0.575	0.555	0.493
709																																																																																					0.469	0.430	1.534	1.071	1.021	0.895	0.867	0.838	0.779	0.588	0.567	0.504
710																																																																																					0.463	0.425	1.551	1.087	1.038	0.911	0.883	0.854	0.795	0.600	0.579	0.515
711																																																																																					0.456	0.419	1.568	1.104	1.057	0.929	0.901	0.873	0.812	0.613	0.592	0.525
712																																																																																					0.450	0.413	1.584	1.121	1.074	0.945	0.919	0.890	0.828	0.625	0.603	0.536
713																																																																																					0.443	0.407	1.600	1.138	1.093	0.963	0.937	0.908	0.846	0.639	0.617	0.548
714																																																																																					0.437	0.402	1.616	1.156	1.111	0.981	0.956	0.928	0.864	0.653	0.630	0.560
715																																																																																					0.430	0.396	1.632	1.173	1.129	1.000	0.975	0.947	0.883	0.667	0.644	0.572
716																																																																																					0.424	0.391	1.646	1.189	1.146	1.017	0.993	0.965	0.901	0.681	0.657	0.584
717																																																																																					0.418	0.385	1.660	1.206	1.164	1.035	1.011	0.985	0.919	0.695	0.671	0.596
718																																																																																					0.413	0.380	1.673	1.221	1.181	1.052	1.029	1.004	0.936	0.709	0.684	0.608
719																																																																																					0.406	0.375	1.687	1.238	1.199	1.070	1.049	1.023	0.956	0.724	0.699	0.622
720																																																																																					0.401	0.370	1.699	1.253	1.216	1.087	1.066	1.042	0.974	0.738	0.713	0.634
721																																																																																					0.395	0.365	1.712	1.270	1.234	1.105	1.086	1.063	0.994	0.754	0.729	0.648
722																																																																																					0.389	0.360	1.724	1.286	1.252	1.124	1.106	1.083	1.014	0.770	0.745	0.662
723																																																																																					0.383	0.355	1.735	1.302	1.269	1.142	1.126	1.104	1.034	0.786	0.760	0.677
724																																																																																					0.378	0.350	1.746	1.317	1.286	1.159	1.144	1.123	1.054	0.801	0.775	0.691
725																																																																																					0.373	0.345	1.756	1.332	1.302	1.177	1.164	1.145	1.074	0.818	0.792	0.706
726																																																																																					0.368	0.341	1.766	1.346	1.319	1.194	1.182	1.164	1.094	0.833	0.807	0.721
727																																																																																					0.363	0.337	1.776	1.361	1.335	1.212	1.202	1.185	1.114	0.850	0.824	0.736
728																																																																																					0.357	0.332	1.785	1.377	1.353	1.231	1.223	1.208	1.137	0.868	0.843	0.753
729																																																																																					0.352	0.328	1.794	1.391	1.369	1.248	1.243	1.229	1.158	0.885	0.859	0.769
730																																																																																					0.348	0.324	1.801	1.404	1.384	1.264	1.261	1.249	1.178	0.902	0.876	0.784
731																																																																																					0.344	0.320	1.809	1.417	1.400	1.282	1.280	1.270	1.199	0.919	0.894	0.801
732																																																																																					0.339	0.316	1.815	1.430	1.414	1.298	1.298	1.290	1.219	0.935	0.910	0.816
733																																																																																					0.335	0.312	1.821	1.442	1.429	1.315	1.317	1.311	1.241	0.953	0.928	0.833
734																																																																																					0.331	0.308	1.826	1.453	1.442	1.329	1.334	1.330	1.260	0.969	0.944	0.848
735																																																																																					0.326	0.304	1.831	1.465	1.456	1.346	1.353	1.350	1.280	0.987	0.962	0.865
736																																																																																					0.322	0.300	1.835	1.476	1.470	1.362	1.371	1.372	1.302	1.004	0.980	0.883
737																																																																																					0.317	0.297	1.839	1.487	1.483	1.377	1.389	1.392	1.323	1.022	0.998	0.900
738																																																																																					0.313	0.293	1.842	1.497	1.496	1.392	1.407	1.412	1.344	1.040	1.016	0.917
739																																																																																					0.309	0.290	1.844	1.507	1.508	1.407	1.424	1.431	1.364	1.057	1.034	0.935
740																																																																																					0.305	0.286	1.846	1.516	1.519	1.421	1.441	1.451	1.384	1.074	1.052	0.952
741																																																																																					0.301	0.282	1.847	1.525	1.531	1.435	1.457	1.470	1.404	1.091	1.069	0.969
742																																																																																					0.297	0.279	1.847	1.534	1.542	1.448	1.474	1.489	1.424	1.109	1.087	0.987
743																																																																																					0.293	0.275	1.847	1.542	1.552	1.461	1.489	1.507	1.443	1.126	1.105	1.004
744																																																																																					0.289	0.272	1.847	1.549	1.562	1.474	1.506	1.526	1.464	1.143	1.123	1.022
745																																																																																					0.286	0.269	1.846	1.556	1.572	1.487	1.522	1.545	1.483	1.161	1.142	1.040
746																																																																																					0.282	0.265	1.845	1.563	1.581	1.498	1.536	1.563	1.503	1.178	1.159	1.058
747																																																																																					0.278	0.262	1.842	1.569	1.590	1.511	1.552	1.582	1.522	1.195	1.178	1.077
748																																																																																					0.275	0.259	1.840	1.575	1.598	1.522	1.566	1.598	1.540	1.212	1.196	1.095
749																																																																																					0.271	0.256	1.837	1.580	1.606	1.533	1.581	1.617	1.560	1.230	1.214	1.113
750																																																																																					0.268	0.253	1.833	1.585	1.614	1.544	1.594	1.634	1.579	1.246	1.232	1.131
751																																																																																					0.264	0.250	1.829	1.589	1.620	1.553	1.607	1.650	1.596	1.262	1.249	1.148
752																																																																																					0.261	0.247	1.825	1.593	1.626	1.562	1.619	1.665	1.613	1.277	1.266	1.165
753																																																																																					0.258	0.244	1.821	1.597	1.632	1.572	1.631	1.680	1.630	1.293	1.283	1.182
754																																																																																					0.255	0.241	1.816	1.599	1.637	1.580	1.643	1.696	1.647	1.309	1.300	1.200
755																																																																																					0.252	0.239	1.810	1.602	1.643	1.588	1.654	1.710	1.663	1.324	1.316	1.217
756																																																																																					0.249	0.236	1.804	1.604	1.647	1.597	1.666	1.725	1.680	1.340	1.333	1.235
757																																																																																					0.246	0.234	1.798	1.606	1.652	1.604	1.676	1.739	1.696	1.355	1.350	1.252
758																																																																																					0.242	0.231	1.790	1.607	1.656	1.613	1.689	1.756	1.714	1.373	1.370	1.272
759																																																																																					0.240	0.228	1.783	1.608	1.659	1.619	1.698	1.769	1.729	1.388	1.385	1.289
760																																																																																					0.237	0.226	1.775	1.609	1.662	1.626	1.708	1.783	1.745	1.403	1.403	1.307
761																																																																																					0.234	0.223	1.766	1.609	1.664	1.632	1.718	1.797	1.761	1.419	1.420	1.326
762																																																																																					0.231	0.220	1.757	1.609	1.667	1.638	1.728	1.810	1.777	1.434	1.438	1.344
763																																																																																					0.228	0.218	1.750	1.609	1.668	1.643	1.736	1.821	1.790	1.447	1.453	1.361
764																																																																																					0.226	0.216	1.742	1.608	1.669	1.647	1.743	1.831	1.802	1.459	1.466	1.375
765																																																																																					0.224	0.214	1.735	1.607	1.670	1.650	1.749	1.840	1.812	1.470	1.477	1.387
766																																																																																					0.222	0.212	1.726	1.605	1.670	1.654	1.755	1.850	1.823	1.481	1.491	1.403
767																																																																																					0.219	0.210	1.716	1.604	1.671	1.658	1.762	1.860	1.837	1.495	1.507	1.419
768																																																																																					0.216	0.207	1.705	1.601	1.670	1.661	1.769	1.871	1.850	1.509	1.522	1.437
769																																																																																					0.214	0.205	1.695	1.599	1.669	1.663	1.776	1.881	1.862	1.521	1.537	1.452
770																																																																																					0.211	0.203	1.684	1.595	1.668	1.666	1.781	1.890	1.874	1.534	1.551	1.469
771																																																																																					0.209	0.201	1.674	1.592	1.666	1.668	1.785	1.899	1.884	1.546	1.565	1.484
772																																																																																					0.207	0.199	1.663	1.588	1.664	1.669	1.790	1.906	1.894	1.556	1.577	1.498
773																																																																																					0.205	0.197	1.652	1.584	1.662	1.670	1.795	1.914	1.904	1.568	1.591	1.514
774																																																																																					0.202	0.195	1.642	1.580	1.660	1.672	1.799	1.921	1.915	1.579	1.604	1.528
775																																																																																					0.200	0.193	1.630	1.575	1.657	1.672	1.801	1.928	1.922	1.589	1.616	1.542
776																																																																																					0.198	0.191	1.618	1.570	1.653	1.671	1.804	1.934	1.931	1.599	1.628	1.556
777																																																																																					0.196	0.189	1.607	1.565	1.649	1.671	1.806	1.940	1.940	1.608	1.640	1.570
778																																																																																					0.194	0.187	1.594	1.560	1.645	1.670	1.808	1.945	1.947	1.619	1.652	1.584
779																																																																																					0.192	0.185	1.582	1.553	1.641	1.669	1.810	1.949	1.955	1.627	1.663	1.598
780																																																																																					0.190	0.183	1.569	1.547	1.636	1.668	1.811	1.955	1.961	1.637	1.674	1.611
781																																																																																					0.188	0.182	1.557	1.541	1.631	1.665	1.812	1.958	1.968	1.645	1.684	1.624
782																																																																																					0.186	0.180	1.546	1.535	1.625	1.663	1.813	1.962	1.974	1.653	1.694	1.636
783																																																																																					0.184	0.178	1.533	1.528	1.620	1.660	1.813	1.964	1.979	1.660	1.704	1.648
784																																																																																					0.182	0.176	1.519	1.520	1.613	1.657	1.812	1.968	1.985	1.668	1.713	1.660
785																																																																																					0.180	0.175	1.506	1.513	1.607	1.654	1.811	1.969	1.989	1.675	1.722	1.672
786																																																																																					0.178	0.173	1.492	1.504	1.600	1.650	1.810	1.970	1.993	1.682	1.731	1.684
787																																																																																					0.176	0.172	1.479	1.496	1.593	1.646	1.808	1.972	1.996	1.688	1.740	1.695
788																																																																																					0.174	0.170	1.466	1.489	1.585	1.641	1.806	1.973	2.000	1.694	1.748	1.705
789																																																																																					0.173	0.168	1.453	1.480	1.578	1.637	1.804	1.973	2.002	1.698	1.755	1.714
790																																																																																					0.171	0.167	1.441	1.472	1.571	1.632	1.801	1.973	2.004	1.704	1.761	1.724
791																																																																																					0.170	0.166	1.429	1.464	1.563	1.627	1.798	1.972	2.006	1.708	1.768	1.733
792																																																																																					0.168	0.164	1.413	1.454	1.554	1.620	1.794	1.971	2.007	1.712	1.775	1.742
793																																																																																					0.166	0.163	1.399	1.445	1.546	1.615	1.790	1.968	2.007	1.716	1.780	1.750
794																																																																																					0.164	0.161	1.386	1.435	1.537	1.607	1.785	1.966	2.007	1.719	1.786	1.759
795																																																																																					0.163	0.159	1.372	1.425	1.527	1.601	1.779	1.964	2.007	1.722	1.791	1.766
796																																																																																					0.161	0.158	1.360	1.416	1.519	1.595	1.775	1.962	2.006	1.724	1.795	1.774
797																																																																																					0.160	0.157	1.346	1.407	1.510	1.586	1.769	1.959	2.006	1.726	1.799	1.780
798																																																																																					0.158	0.156	1.333	1.397	1.501	1.580	1.764	1.955	2.004	1.728	1.803	1.787
799																																																																																					0.157	0.154	1.319	1.387	1.490	1.572	1.758	1.951	2.002	1.729	1.806	1.793
800																																																																																					0.155	0.153	1.305	1.376	1.481	1.564	1.751	1.946	2.000	1.731	1.809	1.799
801																																																																																					0.154	0.152	1.291	1.364	1.469	1.556	1.744	1.940	1.996	1.731	1.811	1.804
802																																																																																					0.153	0.150	1.279	1.356	1.460	1.548	1.737	1.935	1.994	1.731	1.814	1.809
803																																																																																					0.151	0.149	1.266	1.345	1.450	1.540	1.730	1.930	1.990	1.731	1.816	1.813
804																																																																																					0.150	0.148	1.252	1.334	1.439	1.530	1.722	1.924	1.985	1.730	1.817	1.818
805																																																																																					0.148	0.147	1.238	1.322	1.428	1.521	1.713	1.918	1.982	1.729	1.817	1.822
806																																																																																					0.147	0.146	1.226	1.313	1.419	1.512	1.706	1.912	1.977	1.728	1.818	1.824
807																																																																																					0.146	0.145	1.212	1.302	1.407	1.503	1.699	1.904	1.971	1.726	1.818	1.827
808																																																																																					0.145	0.144	1.200	1.292	1.398	1.494	1.689	1.898	1.965	1.725	1.818	1.830
809																																																																																					0.144	0.143	1.187	1.281	1.387	1.484	1.682	1.891	1.962	1.723	1.817	1.832
810																																																																																					0.143	0.141	1.175	1.271	1.376	1.475	1.673	1.883	1.955	1.720	1.816	1.834
811																																																																																					0.142	0.140	1.161	1.259	1.365	1.465	1.663	1.874	1.948	1.717	1.815	1.835
812																																																																																					0.141	0.139	1.148	1.247	1.353	1.454	1.653	1.866	1.940	1.713	1.814	1.837
813																																																																																					0.140	0.139	1.135	1.236	1.342	1.444	1.644	1.857	1.933	1.710	1.811	1.837
814																																																																																					0.139	0.138	1.122	1.225	1.331	1.433	1.634	1.848	1.926	1.706	1.808	1.838
815																																																																																					0.137	0.137	1.109	1.214	1.319	1.423	1.623	1.840	1.918	1.702	1.805	1.838
816																																																																																					0.136	0.136	1.095	1.201	1.306	1.411	1.612	1.827	1.909	1.697	1.803	1.837
817																																																																																					0.135	0.135	1.083	1.190	1.295	1.400	1.601	1.818	1.901	1.693	1.798	1.837
818																																																																																					0.134	0.134	1.070	1.178	1.283	1.389	1.591	1.808	1.892	1.687	1.795	1.835
819																																																																																					0.133	0.133	1.056	1.165	1.269	1.377	1.579	1.797	1.882	1.681	1.790	1.833
820																																																																																					0.132	0.132	1.040	1.150	1.254	1.362	1.564	1.783	1.870	1.674	1.783	1.831
821																																																																																					0.131	0.131	1.025	1.136	1.240	1.349	1.550	1.770	1.859	1.666	1.778	1.828
822																																																																																					0.130	0.131	1.015	1.127	1.231	1.340	1.542	1.761	1.851	1.661	1.774	1.826
823																																																																																					0.130	0.131	1.008	1.122	1.225	1.334	1.536	1.756	1.845	1.658	1.772	1.824
824																																																																																					0.130	0.131	1.002	1.117	1.218	1.328	1.530	1.750	1.839	1.655	1.770	1.823
825																																																																																					0.130	0.131	0.994	1.110	1.210	1.320	1.522	1.742	1.832	1.650	1.766	1.821
826																																																																																					0.129	0.130	0.978	1.095	1.195	1.305	1.507	1.728	1.818	1.640	1.758	1.816
827																																																																																					0.128	0.129	0.965	1.081	1.181	1.292	1.493	1.713	1.806	1.632	1.751	1.811
828																																																																																					0.128	0.129	0.955	1.072	1.172	1.282	1.483	1.704	1.797	1.626	1.745	1.808
829																																																																																					0.127	0.128	0.947	1.065	1.163	1.274	1.475	1.695	1.788	1.620	1.740	1.804
830																																																																																					0.127	0.128	0.937	1.056	1.153	1.265	1.465	1.685	1.778	1.614	1.735	1.800
831																																																																																					0.127	0.128	0.924	1.043	1.140	1.251	1.451	1.671	1.765	1.604	1.726	1.794
832																																																																																					0.126	0.127	0.907	1.025	1.122	1.233	1.432	1.651	1.747	1.591	1.713	1.785
833																																																																																					0.125	0.126	0.895	1.013	1.109	1.220	1.419	1.638	1.734	1.581	1.705	1.779
834																																																																																					0.125	0.126	0.887	1.005	1.100	1.212	1.409	1.628	1.725	1.575	1.699	1.774
835																																																																																					0.124	0.126	0.878	0.997	1.091	1.202	1.400	1.618	1.715	1.568	1.692	1.769
836																																																																																					0.124	0.126	0.871	0.990	1.082	1.194	1.391	1.609	1.706	1.561	1.687	1.764
837																																																																																					0.123	0.125	0.860	0.980	1.072	1.183	1.379	1.597	1.694	1.552	1.678	1.758
838																																																																																					0.123	0.124	0.847	0.966	1.058	1.169	1.364	1.581	1.679	1.540	1.667	1.749
839																																																																																					0.122	0.123	0.835	0.953	1.044	1.155	1.349	1.565	1.663	1.528	1.655	1.740
840																																																																																					0.122	0.123	0.825	0.943	1.033	1.144	1.338	1.552	1.651	1.519	1.647	1.732
841																																																																																					0.121	0.122	0.816	0.934	1.023	1.133	1.326	1.541	1.639	1.510	1.638	1.724
842																																																																																					0.120	0.122	0.807	0.925	1.014	1.124	1.316	1.530	1.628	1.502	1.630	1.718
843																																																																																					0.120	0.122	0.798	0.916	1.003	1.113	1.304	1.517	1.616	1.493	1.621	1.710
844																																																																																					0.119	0.121	0.787	0.904	0.990	1.100	1.290	1.502	1.601	1.480	1.609	1.699
845																																																																																					0.119	0.120	0.776	0.893	0.979	1.087	1.276	1.488	1.587	1.469	1.598	1.691
846																																																																																					0.118	0.120	0.767	0.883	0.968	1.077	1.264	1.474	1.573	1.459	1.588	1.681
847																																																																																					0.118	0.119	0.757	0.873	0.957	1.065	1.252	1.461	1.561	1.449	1.577	1.673
848																																																																																					0.117	0.119	0.749	0.864	0.947	1.055	1.241	1.449	1.548	1.438	1.567	1.664
849																																																																																					0.117	0.118	0.740	0.855	0.937	1.044	1.228	1.435	1.534	1.428	1.557	1.655
850																																																																																					0.117	0.118	0.731	0.845	0.926	1.033	1.217	1.423	1.522	1.417	1.547	1.646
851																																																																																					0.116	0.117	0.722	0.836	0.916	1.022	1.205	1.410	1.509	1.407	1.536	1.636
852																																																																																					0.115	0.117	0.712	0.826	0.905	1.011	1.192	1.395	1.494	1.395	1.525	1.625
853																																																																																					0.115	0.117	0.705	0.817	0.895	1.001	1.181	1.383	1.482	1.385	1.514	1.616
854																																																																																					0.115	0.117	0.696	0.808	0.885	0.989	1.169	1.370	1.468	1.374	1.503	1.606
855																																																																																					0.114	0.116	0.688	0.799	0.875	0.980	1.158	1.357	1.455	1.364	1.493	1.596
856																																																																																					0.114	0.116	0.678	0.789	0.864	0.969	1.145	1.343	1.441	1.352	1.481	1.585
857																																																																																					0.113	0.115	0.670	0.781	0.855	0.958	1.133	1.331	1.427	1.341	1.469	1.574
858																																																																																					0.113	0.115	0.662	0.772	0.845	0.948	1.121	1.317	1.415	1.330	1.458	1.564
859																																																																																					0.113	0.114	0.654	0.762	0.835	0.937	1.110	1.304	1.401	1.319	1.446	1.552
860																																																																																					0.112	0.114	0.647	0.755	0.826	0.927	1.099	1.292	1.389	1.308	1.436	1.542
861																																																																																					0.112	0.114	0.640	0.747	0.817	0.919	1.089	1.281	1.377	1.299	1.426	1.533
862																																																																																					0.112	0.114	0.632	0.739	0.808	0.908	1.077	1.267	1.363	1.287	1.414	1.522
863																																																																																					0.112	0.114	0.625	0.731	0.799	0.898	1.066	1.254	1.350	1.276	1.402	1.512
864																																																																																					0.111	0.114	0.618	0.722	0.790	0.888	1.055	1.242	1.337	1.265	1.391	1.501
865																																																																																					0.111	0.113	0.610	0.715	0.781	0.879	1.045	1.230	1.325	1.255	1.381	1.490
866																																																																																					0.111	0.113	0.603	0.706	0.771	0.869	1.032	1.216	1.311	1.243	1.369	1.478
867																																																																																					0.111	0.113	0.596	0.699	0.763	0.860	1.022	1.205	1.299	1.233	1.358	1.468
868																																																																																					0.111	0.113	0.589	0.691	0.754	0.850	1.012	1.193	1.287	1.221	1.346	1.457
869																																																																																					0.111	0.113	0.583	0.684	0.746	0.841	1.001	1.182	1.274	1.211	1.335	1.446
870																																																																																					0.111	0.113	0.577	0.676	0.738	0.833	0.991	1.169	1.262	1.200	1.324	1.436
871																																																																																					0.111	0.113	0.570	0.669	0.729	0.824	0.981	1.157	1.249	1.190	1.312	1.424
872																																																																																					0.111	0.113	0.564	0.663	0.722	0.815	0.972	1.147	1.238	1.180	1.302	1.414
873																																																																																					0.111	0.113	0.557	0.655	0.713	0.806	0.961	1.134	1.225	1.169	1.290	1.402
874																																																																																					0.111	0.113	0.551	0.648	0.705	0.797	0.951	1.122	1.213	1.158	1.279	1.391
875																																																																																					0.111	0.112	0.545	0.641	0.697	0.788	0.940	1.110	1.200	1.147	1.267	1.380
876																																																																																					0.111	0.112	0.538	0.633	0.688	0.779	0.929	1.098	1.187	1.136	1.255	1.368
877																																																																																					0.110	0.112	0.531	0.625	0.679	0.769	0.918	1.085	1.174	1.124	1.242	1.355
878																																																																																					0.110	0.111	0.522	0.614	0.669	0.757	0.904	1.069	1.158	1.109	1.226	1.339
879																																																																																					0.108	0.110	0.514	0.604	0.658	0.745	0.890	1.054	1.142	1.095	1.210	1.324
880																																																																																					0.108	0.110	0.508	0.596	0.649	0.735	0.879	1.040	1.128	1.082	1.198	1.311
881																																																																																					0.108	0.110	0.504	0.593	0.644	0.730	0.873	1.034	1.119	1.075	1.192	1.303
882																																																																																					0.108	0.111	0.501	0.591	0.641	0.726	0.868	1.028	1.113	1.070	1.186	1.298
883																																																																																					0.108	0.110	0.498	0.588	0.637	0.722	0.863	1.022	1.106	1.064	1.181	1.292
884																																																																																					0.108	0.111	0.494	0.585	0.632	0.717	0.858	1.016	1.099	1.058	1.174	1.284
885																																																																																					0.107	0.110	0.488	0.579	0.625	0.709	0.848	1.005	1.087	1.047	1.163	1.274
886																																																																																					0.106	0.109	0.480	0.569	0.614	0.697	0.834	0.989	1.070	1.032	1.146	1.257
887																																																																																					0.106	0.109	0.474	0.561	0.607	0.688	0.824	0.976	1.057	1.020	1.134	1.244
888																																																																																					0.106	0.108	0.469	0.554	0.599	0.679	0.813	0.965	1.045	1.009	1.122	1.231
889																																																																																					0.105	0.108	0.463	0.547	0.592	0.671	0.804	0.954	1.033	0.998	1.110	1.220
890																																																																																					0.105	0.108	0.457	0.540	0.584	0.662	0.794	0.942	1.021	0.987	1.098	1.207
891																																																																																					0.105	0.108	0.452	0.534	0.577	0.654	0.784	0.930	1.009	0.976	1.086	1.195
892																																																																																					0.104	0.107	0.445	0.525	0.568	0.644	0.772	0.916	0.995	0.962	1.071	1.180
893																																																																																					0.104	0.107	0.439	0.518	0.560	0.635	0.762	0.905	0.982	0.951	1.058	1.167
894																																																																																					0.104	0.107	0.435	0.513	0.554	0.629	0.754	0.896	0.972	0.942	1.049	1.156
895																																																																																					0.104	0.107	0.432	0.510	0.549	0.623	0.748	0.888	0.964	0.934	1.041	1.148
896																																																																																					0.104	0.108	0.428	0.507	0.546	0.619	0.743	0.882	0.957	0.928	1.035	1.141
897																																																																																					0.104	0.108	0.425	0.503	0.540	0.614	0.736	0.874	0.948	0.921	1.026	1.132
898																																																																																					0.104	0.107	0.421	0.499	0.535	0.607	0.729	0.866	0.939	0.912	1.018	1.123
899																																																																																					0.104	0.107	0.415	0.492	0.528	0.599	0.719	0.854	0.926	0.901	1.005	1.110
900																																																																																					0.104	0.107	0.411	0.486	0.521	0.591	0.710	0.843	0.915	0.890	0.993	1.097
901																																																																																					0.104	0.106	0.405	0.478	0.513	0.582	0.699	0.831	0.902	0.877	0.979	1.083
902																																																																																					0.103	0.106	0.400	0.471	0.506	0.574	0.689	0.819	0.889	0.865	0.965	1.069
903																																																																																					0.103	0.106	0.395	0.466	0.499	0.567	0.681	0.809	0.879	0.856	0.955	1.058
904																																																																																					0.104	0.107	0.393	0.463	0.496	0.563	0.676	0.803	0.871	0.849	0.949	1.051
905																																																																																					0.104	0.107	0.390	0.461	0.493	0.559	0.672	0.798	0.866	0.844	0.944	1.045
906																																																																																					0.104	0.107	0.388	0.459	0.490	0.556	0.667	0.793	0.860	0.839	0.938	1.039
907																																																																																					0.104	0.108	0.384	0.456	0.485	0.550	0.661	0.785	0.852	0.832	0.930	1.030
908																																																																																					0.104	0.107	0.379	0.449	0.478	0.542	0.652	0.773	0.839	0.820	0.916	1.016
909																																																																																					0.104	0.107	0.375	0.443	0.472	0.535	0.642	0.763	0.828	0.809	0.905	1.004
910																																																																																					0.104	0.107	0.371	0.438	0.466	0.529	0.635	0.754	0.818	0.800	0.894	0.993
911																																																																																					0.104	0.107	0.368	0.433	0.461	0.523	0.627	0.745	0.809	0.791	0.884	0.982
912																																																																																					0.104	0.107	0.363	0.427	0.454	0.515	0.619	0.734	0.798	0.780	0.872	0.970
913																																																																																					0.104	0.107	0.359	0.421	0.448	0.508	0.610	0.724	0.787	0.769	0.860	0.957
914																																																																																					0.104	0.107	0.355	0.415	0.442	0.501	0.602	0.714	0.776	0.759	0.848	0.945
915																																																																																					0.105	0.108	0.353	0.413	0.439	0.497	0.597	0.709	0.770	0.753	0.843	0.938
916																																																																																					0.106	0.109	0.351	0.412	0.436	0.494	0.594	0.704	0.764	0.748	0.838	0.932
917																																																																																					0.106	0.109	0.350	0.411	0.434	0.492	0.591	0.701	0.760	0.745	0.834	0.927
918																																																																																					0.107	0.110	0.348	0.410	0.432	0.490	0.588	0.697	0.755	0.740	0.830	0.922
919																																																																																					0.107	0.111	0.345	0.407	0.428	0.485	0.582	0.690	0.747	0.733	0.822	0.914
920																																																																																					0.107	0.111	0.342	0.403	0.423	0.479	0.575	0.681	0.739	0.725	0.812	0.903
921																																																																																					0.108	0.111	0.339	0.398	0.419	0.474	0.568	0.673	0.729	0.716	0.802	0.893
922																																																																																					0.109	0.112	0.337	0.394	0.415	0.469	0.562	0.666	0.722	0.708	0.793	0.883
923																																																																																					0.110	0.113	0.335	0.391	0.410	0.464	0.556	0.658	0.714	0.700	0.784	0.873
924																																																																																					0.111	0.114	0.333	0.388	0.407	0.460	0.551	0.652	0.707	0.693	0.777	0.865
925																																																																																					0.113	0.115	0.331	0.385	0.404	0.456	0.546	0.646	0.700	0.686	0.769	0.857
926																																																																																					0.114	0.116	0.329	0.382	0.401	0.452	0.541	0.640	0.693	0.680	0.762	0.849
927																																																																																					0.115	0.117	0.327	0.379	0.397	0.448	0.536	0.634	0.686	0.673	0.754	0.841
928																																																																																					0.116	0.118	0.326	0.377	0.394	0.444	0.531	0.628	0.679	0.666	0.747	0.833
929																																																																																					0.117	0.119	0.324	0.375	0.391	0.441	0.527	0.623	0.674	0.661	0.740	0.825
930																																																																																					0.119	0.121	0.323	0.372	0.389	0.437	0.523	0.617	0.668	0.655	0.734	0.818
931																																																																																					0.120	0.122	0.322	0.370	0.386	0.434	0.519	0.613	0.662	0.649	0.728	0.811
932																																																																																					0.122	0.124	0.321	0.368	0.384	0.431	0.515	0.607	0.657	0.644	0.721	0.804
933																																																																																					0.124	0.126	0.320	0.366	0.381	0.428	0.510	0.602	0.650	0.638	0.714	0.796
934																																																																																					0.126	0.127	0.319	0.364	0.379	0.425	0.507	0.597	0.645	0.632	0.708	0.789
935																																																																																					0.127	0.129	0.318	0.362	0.377	0.422	0.503	0.592	0.640	0.626	0.702	0.782
936																																																																																					0.129	0.131	0.318	0.361	0.375	0.419	0.500	0.588	0.635	0.622	0.696	0.776
937																																																																																					0.131	0.132	0.317	0.360	0.373	0.417	0.497	0.584	0.630	0.617	0.691	0.770
938																																																																																					0.133	0.134	0.317	0.359	0.372	0.416	0.494	0.581	0.627	0.613	0.688	0.765
939																																																																																					0.135	0.137	0.317	0.358	0.371	0.414	0.492	0.578	0.623	0.610	0.683	0.761
940																																																																																					0.137	0.139	0.317	0.358	0.370	0.412	0.490	0.575	0.619	0.606	0.679	0.756
941																																																																																					0.140	0.141	0.317	0.357	0.369	0.410	0.487	0.572	0.615	0.602	0.674	0.750
942																																																																																					0.142	0.143	0.318	0.356	0.367	0.408	0.484	0.568	0.611	0.598	0.669	0.744
943																																																																																					0.145	0.146	0.319	0.355	0.367	0.407	0.482	0.566	0.608	0.594	0.665	0.739
944																																																																																					0.148	0.148	0.320	0.355	0.366	0.406	0.481	0.563	0.605	0.591	0.661	0.735
945																																																																																					0.151	0.151	0.321	0.355	0.366	0.405	0.479	0.561	0.602	0.588	0.657	0.731
946																																																																																					0.155	0.155	0.322	0.355	0.366	0.405	0.478	0.559	0.600	0.585	0.654	0.727
947																																																																																					0.159	0.159	0.324	0.356	0.367	0.405	0.478	0.558	0.598	0.583	0.651	0.723
948																																																																																					0.163	0.162	0.326	0.357	0.367	0.404	0.477	0.556	0.596	0.580	0.648	0.720
949																																																																																					0.168	0.167	0.329	0.358	0.368	0.405	0.477	0.556	0.595	0.579	0.646	0.717
950																																																																																					0.172	0.171	0.332	0.360	0.370	0.406	0.477	0.556	0.594	0.577	0.645	0.715
951																																																																																					0.177	0.175	0.334	0.362	0.371	0.407	0.478	0.556	0.594	0.577	0.644	0.713
952																																																																																					0.181	0.179	0.337	0.363	0.373	0.408	0.479	0.557	0.594	0.576	0.644	0.712
953																																																																																					0.186	0.184	0.341	0.366	0.375	0.409	0.480	0.557	0.594	0.576	0.643	0.711
954																																																																																					0.192	0.189	0.344	0.368	0.377	0.411	0.481	0.558	0.594	0.575	0.641	0.709
955																																																																																					0.197	0.194	0.348	0.370	0.379	0.412	0.482	0.558	0.594	0.575	0.640	0.707
956																																																																																					0.202	0.198	0.351	0.371	0.380	0.413	0.482	0.558	0.594	0.574	0.639	0.705
957																																																																																					0.206	0.203	0.354	0.373	0.382	0.414	0.482	0.558	0.593	0.572	0.637	0.703
958																																																																																					0.210	0.206	0.356	0.374	0.382	0.414	0.482	0.557	0.591	0.570	0.634	0.700
959																																																																																					0.213	0.209	0.358	0.374	0.383	0.414	0.481	0.556	0.590	0.568	0.632	0.697
960																																																																																					0.216	0.212	0.359	0.374	0.382	0.413	0.480	0.554	0.588	0.566	0.629	0.693
961																																																																																					0.218	0.213	0.359	0.374	0.382	0.412	0.479	0.552	0.585	0.563	0.626	0.689
962																																																																																					0.220	0.215	0.359	0.373	0.381	0.411	0.477	0.549	0.582	0.559	0.622	0.684
963																																																																																					0.221	0.216	0.359	0.372	0.380	0.409	0.475	0.546	0.579	0.556	0.618	0.680
964																																																																																					0.222	0.217	0.359	0.371	0.378	0.407	0.472	0.543	0.575	0.552	0.613	0.675
965																																																																																					0.223	0.218	0.358	0.369	0.377	0.405	0.469	0.540	0.571	0.548	0.609	0.670
966																																																																																					0.224	0.219	0.357	0.368	0.375	0.403	0.466	0.536	0.567	0.544	0.604	0.664
967																																																																																					0.225	0.220	0.356	0.366	0.373	0.401	0.464	0.533	0.563	0.540	0.600	0.659
968																																																																																					0.225	0.220	0.355	0.365	0.372	0.399	0.461	0.530	0.560	0.536	0.596	0.655
969																																																																																					0.226	0.221	0.355	0.364	0.370	0.397	0.459	0.527	0.556	0.533	0.592	0.650
970																																																																																					0.226	0.221	0.353	0.362	0.368	0.395	0.456	0.523	0.552	0.529	0.587	0.645
971																																																																																					0.226	0.221	0.352	0.361	0.366	0.393	0.454	0.520	0.549	0.525	0.583	0.640
972																																																																																					0.227	0.222	0.351	0.359	0.364	0.390	0.451	0.516	0.545	0.521	0.578	0.635
973																																																																																					0.227	0.222	0.350	0.358	0.362	0.388	0.448	0.513	0.541	0.517	0.574	0.630
974																																																																																					0.227	0.221	0.348	0.355	0.360	0.385	0.444	0.508	0.536	0.513	0.568	0.624
975																																																																																					0.227	0.221	0.347	0.353	0.357	0.382	0.441	0.504	0.532	0.508	0.562	0.617
976																																																																																					0.226	0.220	0.344	0.350	0.354	0.378	0.436	0.498	0.526	0.502	0.555	0.610
977																																																																																					0.225	0.220	0.342	0.347	0.352	0.376	0.432	0.494	0.522	0.497	0.550	0.604
978																																																																																					0.225	0.220	0.341	0.346	0.350	0.374	0.430	0.492	0.518	0.494	0.547	0.600
979																																																																																					0.226	0.221	0.341	0.346	0.349	0.372	0.429	0.490	0.515	0.492	0.546	0.597
980																																																																																					0.226	0.221	0.340	0.346	0.348	0.372	0.428	0.488	0.513	0.490	0.544	0.595
981																																																																																					0.226	0.221	0.338	0.346	0.347	0.370	0.426	0.486	0.510	0.488	0.542	0.592
982																																																																																					0.225	0.221	0.337	0.345	0.345	0.368	0.424	0.483	0.507	0.485	0.539	0.588
983																																																																																					0.223	0.220	0.333	0.342	0.342	0.365	0.420	0.478	0.502	0.480	0.533	0.582
984																																																																																					0.222	0.217	0.331	0.337	0.338	0.360	0.414	0.472	0.496	0.473	0.524	0.573
985																																																																																					0.221	0.216	0.328	0.333	0.334	0.356	0.409	0.466	0.490	0.467	0.517	0.566
986																																																																																					0.219	0.214	0.326	0.330	0.331	0.352	0.405	0.461	0.485	0.461	0.511	0.559
987																																																																																					0.217	0.213	0.323	0.327	0.328	0.348	0.401	0.456	0.479	0.456	0.505	0.553
988																																																																																					0.216	0.210	0.320	0.323	0.324	0.344	0.395	0.450	0.474	0.450	0.497	0.545
989																																																																																					0.213	0.209	0.317	0.319	0.320	0.340	0.391	0.444	0.468	0.445	0.490	0.538
990																																																																																					0.211	0.208	0.314	0.316	0.317	0.337	0.387	0.440	0.463	0.440	0.485	0.533
991																																																																																					0.211	0.207	0.312	0.315	0.315	0.335	0.384	0.437	0.459	0.436	0.483	0.529
992																																																																																					0.211	0.207	0.311	0.315	0.314	0.334	0.383	0.435	0.457	0.434	0.481	0.525
993																																																																																					0.211	0.207	0.310	0.315	0.313	0.333	0.382	0.433	0.455	0.433	0.480	0.523
994																																																																																					0.211	0.207	0.308	0.314	0.311	0.331	0.380	0.431	0.452	0.431	0.478	0.520
995																																																																																					0.209	0.206	0.306	0.313	0.309	0.329	0.377	0.428	0.448	0.428	0.474	0.516
996																																																																																					0.207	0.204	0.302	0.309	0.306	0.325	0.373	0.423	0.443	0.423	0.468	0.510
997																																																																																					0.204	0.202	0.299	0.305	0.302	0.321	0.368	0.417	0.437	0.416	0.461	0.503
998																																																																																					0.202	0.199	0.296	0.301	0.298	0.317	0.362	0.412	0.431	0.411	0.454	0.496
999																																																																																					0.200	0.197	0.293	0.298	0.295	0.313	0.358	0.406	0.426	0.406	0.449	0.489

结果
	1	2	3	4	5	6	7	8	9	10	11	12
A	?????	?????	?????	?????	?????	?????	?????	?????	?????	?????	?????	?????	Mean Max OD [Spectrum]
B	?????	?????	?????	?????	?????	?????	?????	?????	?????	?????	?????	?????	Mean Max OD [Spectrum]
C	?????	?????	?????	?????	?????	?????	?????	?????	?????	?????	?????	?????	Mean Max OD [Spectrum]
D	?????	?????	?????	?????	?????	?????	?????	?????	?????	?????	?????	?????	Mean Max OD [Spectrum]
E	?????	?????	?????	?????	?????	?????	?????	?????	?????	?????	?????	?????	Mean Max OD [Spectrum]
F	?????	?????	?????	?????	?????	?????	?????	?????	?????	?????	?????	?????	Mean Max OD [Spectrum]
G	?????	?????	?????	?????	?????	?????	?????	?????	?????	?????	?????	?????	Mean Max OD [Spectrum]
H	1.117	1.056	1.847	1.609	1.671	1.672	1.813	1.973	2.007	1.731	1.818	1.838	Mean Max OD [Spectrum]

