

软件版本	3.11.19



实验文件路径:	
方案文件路径:	



板编号	板 1
日期	2023/4/14
时间	10:57:53
检测仪类型:	Epoch 2
检测仪序列号:	2205170B
检测类型	检测仪

程序详细信息

板类型	96 WELL PLATE
完成后弹出板	
检测	吸收光 光谱
	A1..A12
	开始: 400 nm,  停止: 999 nm,  步骤: 1 nm
	检测前校准
	检测速度: 正常,  延迟: 100 msec,  测量值/数据点: 8

Spectrum

波长	A1	A2	A3	A4	A5	A6	A7	A8	A9	A10	A11	A12	B1	B2	B3	B4	B5	B6	B7	B8	B9	B10	B11	B12	C1	C2	C3	C4	C5	C6	C7	C8	C9	C10	C11	C12	D1	D2	D3	D4	D5	D6	D7	D8	D9	D10	D11	D12	E1	E2	E3	E4	E5	E6	E7	E8	E9	E10	E11	E12	F1	F2	F3	F4	F5	F6	F7	F8	F9	F10	F11	F12	G1	G2	G3	G4	G5	G6	G7	G8	G9	G10	G11	G12	H1	H2	H3	H4	H5	H6	H7	H8	H9	H10	H11	H12
400	0.502	0.558	0.492	0.532	0.532	0.520	0.556	0.553	0.618	0.865	0.942	0.999																																																																																				
401	0.501	0.556	0.491	0.531	0.531	0.518	0.555	0.552	0.616	0.864	0.940	0.997																																																																																				
402	0.499	0.555	0.490	0.529	0.529	0.517	0.553	0.550	0.615	0.862	0.938	0.994																																																																																				
403	0.498	0.554	0.489	0.528	0.528	0.516	0.552	0.549	0.613	0.860	0.936	0.992																																																																																				
404	0.497	0.552	0.487	0.527	0.527	0.514	0.550	0.547	0.612	0.858	0.934	0.990																																																																																				
405	0.496	0.551	0.486	0.525	0.526	0.513	0.549	0.546	0.611	0.857	0.933	0.988																																																																																				
406	0.494	0.550	0.485	0.524	0.524	0.512	0.548	0.545	0.609	0.855	0.931	0.986																																																																																				
407	0.493	0.548	0.484	0.523	0.523	0.511	0.547	0.544	0.608	0.853	0.929	0.984																																																																																				
408	0.492	0.547	0.483	0.522	0.522	0.509	0.545	0.543	0.606	0.852	0.927	0.982																																																																																				
409	0.491	0.546	0.482	0.520	0.521	0.508	0.544	0.541	0.605	0.850	0.926	0.981																																																																																				
410	0.490	0.544	0.481	0.519	0.519	0.507	0.543	0.540	0.604	0.848	0.924	0.979																																																																																				
411	0.488	0.543	0.480	0.518	0.518	0.506	0.541	0.539	0.602	0.847	0.922	0.977																																																																																				
412	0.487	0.542	0.479	0.517	0.517	0.504	0.540	0.538	0.601	0.845	0.921	0.975																																																																																				
413	0.486	0.540	0.478	0.515	0.516	0.503	0.539	0.536	0.600	0.844	0.919	0.973																																																																																				
414	0.485	0.539	0.476	0.514	0.515	0.502	0.538	0.535	0.598	0.843	0.917	0.972																																																																																				
415	0.484	0.538	0.475	0.513	0.513	0.501	0.536	0.534	0.597	0.841	0.916	0.970																																																																																				
416	0.483	0.536	0.474	0.512	0.512	0.500	0.535	0.533	0.596	0.839	0.914	0.968																																																																																				
417	0.482	0.535	0.473	0.510	0.511	0.499	0.534	0.532	0.595	0.838	0.913	0.967																																																																																				
418	0.480	0.534	0.472	0.509	0.510	0.497	0.533	0.530	0.593	0.837	0.911	0.965																																																																																				
419	0.479	0.533	0.471	0.508	0.509	0.496	0.532	0.529	0.592	0.835	0.910	0.963																																																																																				
420	0.478	0.531	0.470	0.507	0.508	0.495	0.531	0.528	0.591	0.834	0.909	0.962																																																																																				
421	0.477	0.530	0.470	0.506	0.507	0.494	0.530	0.527	0.590	0.833	0.908	0.961																																																																																				
422	0.476	0.529	0.469	0.505	0.506	0.493	0.529	0.526	0.589	0.832	0.907	0.960																																																																																				
423	0.476	0.528	0.468	0.504	0.505	0.492	0.528	0.525	0.588	0.831	0.906	0.959																																																																																				
424	0.475	0.527	0.467	0.503	0.504	0.491	0.527	0.524	0.587	0.830	0.904	0.957																																																																																				
425	0.474	0.526	0.466	0.502	0.503	0.490	0.526	0.523	0.586	0.829	0.903	0.956																																																																																				
426	0.473	0.525	0.465	0.501	0.502	0.489	0.525	0.522	0.585	0.828	0.902	0.955																																																																																				
427	0.472	0.524	0.464	0.500	0.501	0.488	0.524	0.521	0.584	0.827	0.901	0.954																																																																																				
428	0.471	0.523	0.464	0.499	0.500	0.487	0.523	0.520	0.583	0.826	0.900	0.952																																																																																				
429	0.470	0.522	0.463	0.498	0.499	0.486	0.522	0.519	0.581	0.825	0.899	0.951																																																																																				
430	0.469	0.521	0.462	0.497	0.498	0.485	0.521	0.518	0.580	0.824	0.898	0.950																																																																																				
431	0.468	0.520	0.461	0.496	0.497	0.485	0.520	0.517	0.579	0.823	0.897	0.949																																																																																				
432	0.467	0.519	0.460	0.495	0.496	0.484	0.519	0.516	0.578	0.822	0.896	0.948																																																																																				
433	0.466	0.518	0.459	0.494	0.495	0.483	0.518	0.515	0.577	0.822	0.895	0.947																																																																																				
434	0.466	0.517	0.458	0.493	0.494	0.482	0.517	0.515	0.576	0.821	0.894	0.946																																																																																				
435	0.464	0.516	0.457	0.492	0.493	0.481	0.516	0.514	0.575	0.820	0.893	0.945																																																																																				
436	0.464	0.515	0.457	0.492	0.492	0.480	0.515	0.513	0.574	0.819	0.893	0.944																																																																																				
437	0.463	0.514	0.456	0.491	0.491	0.479	0.514	0.512	0.573	0.818	0.892	0.943																																																																																				
438	0.462	0.513	0.455	0.490	0.490	0.478	0.513	0.511	0.572	0.817	0.891	0.942																																																																																				
439	0.461	0.512	0.454	0.489	0.489	0.478	0.513	0.510	0.571	0.817	0.890	0.942																																																																																				
440	0.460	0.511	0.453	0.488	0.489	0.477	0.512	0.509	0.570	0.816	0.890	0.941																																																																																				
441	0.460	0.511	0.453	0.487	0.488	0.476	0.511	0.509	0.569	0.816	0.889	0.940																																																																																				
442	0.459	0.510	0.452	0.486	0.487	0.475	0.510	0.508	0.569	0.815	0.889	0.940																																																																																				
443	0.458	0.509	0.451	0.486	0.486	0.474	0.510	0.507	0.568	0.815	0.888	0.939																																																																																				
444	0.457	0.508	0.451	0.485	0.486	0.474	0.509	0.506	0.567	0.814	0.888	0.939																																																																																				
445	0.456	0.507	0.450	0.484	0.485	0.473	0.508	0.505	0.566	0.814	0.887	0.938																																																																																				
446	0.456	0.507	0.449	0.483	0.484	0.472	0.507	0.505	0.565	0.814	0.887	0.938																																																																																				
447	0.455	0.506	0.449	0.483	0.483	0.471	0.507	0.504	0.564	0.814	0.887	0.938																																																																																				
448	0.454	0.505	0.448	0.482	0.483	0.471	0.506	0.503	0.564	0.814	0.887	0.938																																																																																				
449	0.453	0.505	0.447	0.481	0.482	0.470	0.505	0.503	0.563	0.814	0.887	0.938																																																																																				
450	0.453	0.504	0.447	0.481	0.481	0.470	0.505	0.502	0.562	0.814	0.887	0.938																																																																																				
451	0.452	0.503	0.446	0.480	0.481	0.469	0.504	0.501	0.562	0.814	0.887	0.938																																																																																				
452	0.451	0.502	0.446	0.479	0.480	0.468	0.503	0.501	0.561	0.814	0.887	0.938																																																																																				
453	0.451	0.502	0.445	0.479	0.479	0.468	0.503	0.500	0.560	0.814	0.887	0.938																																																																																				
454	0.450	0.501	0.444	0.478	0.479	0.467	0.502	0.500	0.560	0.814	0.888	0.938																																																																																				
455	0.450	0.501	0.444	0.478	0.478	0.467	0.502	0.499	0.559	0.815	0.888	0.939																																																																																				
456	0.449	0.500	0.444	0.477	0.478	0.466	0.501	0.499	0.559	0.815	0.889	0.939																																																																																				
457	0.448	0.500	0.443	0.477	0.477	0.466	0.501	0.498	0.558	0.816	0.889	0.940																																																																																				
458	0.448	0.499	0.443	0.476	0.477	0.465	0.501	0.498	0.558	0.816	0.890	0.941																																																																																				
459	0.448	0.499	0.443	0.476	0.476	0.465	0.500	0.497	0.558	0.817	0.891	0.942																																																																																				
460	0.447	0.498	0.442	0.476	0.476	0.465	0.500	0.497	0.557	0.818	0.892	0.943																																																																																				
461	0.447	0.498	0.442	0.475	0.476	0.464	0.500	0.497	0.557	0.819	0.893	0.943																																																																																				
462	0.447	0.498	0.442	0.475	0.476	0.464	0.500	0.497	0.557	0.820	0.894	0.945																																																																																				
463	0.446	0.498	0.442	0.475	0.475	0.464	0.500	0.497	0.557	0.821	0.895	0.946																																																																																				
464	0.446	0.498	0.441	0.475	0.475	0.464	0.500	0.497	0.557	0.822	0.897	0.948																																																																																				
465	0.446	0.498	0.441	0.475	0.475	0.464	0.500	0.497	0.557	0.824	0.898	0.949																																																																																				
466	0.446	0.498	0.441	0.475	0.475	0.464	0.500	0.497	0.557	0.826	0.900	0.951																																																																																				
467	0.446	0.498	0.442	0.475	0.475	0.464	0.500	0.497	0.557	0.827	0.902	0.953																																																																																				
468	0.446	0.498	0.442	0.475	0.476	0.464	0.500	0.497	0.558	0.829	0.905	0.956																																																																																				
469	0.446	0.498	0.442	0.475	0.476	0.464	0.500	0.498	0.558	0.831	0.907	0.958																																																																																				
470	0.446	0.498	0.442	0.475	0.476	0.464	0.501	0.498	0.558	0.834	0.910	0.961																																																																																				
471	0.446	0.499	0.442	0.476	0.476	0.465	0.501	0.498	0.559	0.836	0.912	0.963																																																																																				
472	0.447	0.499	0.443	0.476	0.477	0.465	0.502	0.499	0.560	0.839	0.915	0.967																																																																																				
473	0.447	0.500	0.443	0.477	0.477	0.466	0.502	0.500	0.560	0.843	0.919	0.971																																																																																				
474	0.448	0.501	0.444	0.478	0.478	0.466	0.503	0.501	0.561	0.846	0.923	0.974																																																																																				
475	0.448	0.502	0.445	0.478	0.479	0.467	0.504	0.502	0.563	0.850	0.927	0.979																																																																																				
476	0.449	0.503	0.446	0.479	0.480	0.468	0.505	0.503	0.564	0.854	0.931	0.984																																																																																				
477	0.450	0.504	0.447	0.480	0.481	0.469	0.507	0.504	0.565	0.858	0.936	0.989																																																																																				
478	0.451	0.505	0.448	0.482	0.482	0.470	0.508	0.505	0.567	0.863	0.942	0.994																																																																																				
479	0.452	0.507	0.449	0.483	0.484	0.472	0.510	0.507	0.569	0.869	0.948	1.001																																																																																				
480	0.453	0.508	0.451	0.485	0.485	0.473	0.512	0.509	0.571	0.875	0.954	1.007																																																																																				
481	0.455	0.511	0.453	0.487	0.487	0.475	0.514	0.511	0.574	0.882	0.962	1.016																																																																																				
482	0.457	0.513	0.455	0.489	0.489	0.477	0.516	0.513	0.576	0.890	0.971	1.025																																																																																				
483	0.459	0.515	0.456	0.491	0.491	0.479	0.519	0.515	0.579	0.896	0.978	1.032																																																																																				
484	0.460	0.517	0.458	0.493	0.493	0.481	0.521	0.518	0.581	0.902	0.985	1.039																																																																																				
485	0.462	0.519	0.460	0.495	0.495	0.482	0.523	0.520	0.584	0.909	0.991	1.046																																																																																				
486	0.464	0.521	0.462	0.497	0.497	0.485	0.526	0.523	0.587	0.917	1.000	1.056																																																																																				
487	0.467	0.525	0.465	0.500	0.500	0.488	0.529	0.527	0.591	0.928	1.012	1.068																																																																																				
488	0.469	0.528	0.467	0.503	0.503	0.490	0.533	0.530	0.595	0.937	1.022	1.079																																																																																				
489	0.472	0.531	0.470	0.506	0.506	0.493	0.536	0.533	0.599	0.946	1.032	1.089																																																																																				
490	0.475	0.535	0.473	0.509	0.509	0.496	0.540	0.537	0.603	0.958	1.045	1.103																																																																																				
491	0.478	0.539	0.477	0.513	0.513	0.500	0.545	0.542	0.609	0.972	1.061	1.119																																																																																				
492	0.481	0.542	0.480	0.517	0.517	0.503	0.549	0.546	0.613	0.983	1.072	1.132																																																																																				
493	0.484	0.546	0.483	0.520	0.520	0.507	0.553	0.550	0.618	0.995	1.085	1.145																																																																																				
494	0.487	0.550	0.486	0.524	0.524	0.510	0.558	0.555	0.623	1.009	1.100	1.160																																																																																				
495	0.492	0.555	0.491	0.529	0.528	0.515	0.564	0.561	0.630	1.026	1.119	1.181																																																																																				
496	0.496	0.560	0.496	0.534	0.533	0.520	0.570	0.567	0.637	1.044	1.139	1.201																																																																																				
497	0.500	0.566	0.500	0.539	0.538	0.524	0.576	0.573	0.643	1.063	1.159	1.223																																																																																				
498	0.503	0.569	0.503	0.542	0.541	0.527	0.580	0.577	0.648	1.076	1.173	1.238																																																																																				
499	0.507	0.573	0.507	0.546	0.545	0.531	0.585	0.582	0.654	1.091	1.189	1.255																																																																																				
500	0.510	0.577	0.510	0.550	0.549	0.535	0.590	0.587	0.660	1.107	1.208	1.275																																																																																				
501	0.514	0.582	0.514	0.554	0.553	0.539	0.596	0.593	0.666	1.125	1.228	1.296																																																																																				
502	0.517	0.586	0.518	0.558	0.557	0.542	0.601	0.598	0.672	1.144	1.248	1.317																																																																																				
503	0.520	0.590	0.521	0.561	0.560	0.546	0.606	0.603	0.678	1.162	1.268	1.337																																																																																				
504	0.524	0.594	0.525	0.565	0.564	0.550	0.612	0.609	0.684	1.183	1.289	1.361																																																																																				
505	0.526	0.597	0.528	0.569	0.567	0.553	0.617	0.614	0.690	1.200	1.309	1.381																																																																																				
506	0.529	0.601	0.531	0.572	0.570	0.556	0.622	0.618	0.695	1.219	1.330	1.404																																																																																				
507	0.531	0.604	0.533	0.574	0.573	0.558	0.626	0.623	0.700	1.238	1.350	1.425																																																																																				
508	0.533	0.606	0.535	0.577	0.575	0.560	0.630	0.627	0.705	1.256	1.369	1.446																																																																																				
509	0.534	0.608	0.537	0.579	0.577	0.562	0.634	0.631	0.709	1.275	1.390	1.467																																																																																				
510	0.536	0.610	0.539	0.581	0.579	0.564	0.638	0.635	0.714	1.294	1.411	1.490																																																																																				
511	0.537	0.612	0.540	0.582	0.580	0.565	0.641	0.637	0.717	1.311	1.428	1.508																																																																																				
512	0.537	0.613	0.541	0.583	0.581	0.566	0.643	0.640	0.720	1.328	1.447	1.529																																																																																				
513	0.537	0.613	0.542	0.584	0.582	0.567	0.646	0.643	0.723	1.343	1.464	1.546																																																																																				
514	0.537	0.614	0.542	0.584	0.582	0.567	0.648	0.644	0.725	1.358	1.480	1.563																																																																																				
515	0.537	0.614	0.542	0.584	0.582	0.566	0.649	0.646	0.726	1.372	1.494	1.579																																																																																				
516	0.536	0.613	0.541	0.583	0.581	0.566	0.650	0.647	0.728	1.386	1.511	1.596																																																																																				
517	0.535	0.612	0.541	0.582	0.580	0.565	0.651	0.648	0.729	1.401	1.526	1.613																																																																																				
518	0.534	0.611	0.540	0.581	0.579	0.564	0.651	0.648	0.729	1.411	1.537	1.625																																																																																				
519	0.532	0.610	0.539	0.580	0.578	0.563	0.651	0.648	0.729	1.422	1.550	1.637																																																																																				
520	0.531	0.608	0.537	0.579	0.576	0.561	0.651	0.648	0.729	1.431	1.559	1.648																																																																																				
521	0.529	0.606	0.536	0.577	0.574	0.559	0.650	0.648	0.729	1.441	1.570	1.659																																																																																				
522	0.527	0.604	0.534	0.575	0.572	0.557	0.649	0.647	0.728	1.450	1.579	1.669																																																																																				
523	0.524	0.602	0.532	0.572	0.570	0.555	0.648	0.646	0.726	1.458	1.589	1.679																																																																																				
524	0.521	0.599	0.529	0.570	0.567	0.552	0.646	0.644	0.725	1.466	1.596	1.687																																																																																				
525	0.519	0.596	0.526	0.567	0.564	0.549	0.645	0.643	0.723	1.472	1.603	1.695																																																																																				
526	0.516	0.592	0.524	0.564	0.560	0.546	0.643	0.641	0.721	1.477	1.608	1.701																																																																																				
527	0.513	0.589	0.521	0.560	0.557	0.543	0.640	0.639	0.719	1.482	1.613	1.705																																																																																				
528	0.510	0.586	0.518	0.558	0.555	0.540	0.639	0.637	0.717	1.484	1.616	1.708																																																																																				
529	0.508	0.583	0.516	0.555	0.552	0.538	0.637	0.635	0.715	1.486	1.618	1.710																																																																																				
530	0.505	0.580	0.513	0.552	0.549	0.535	0.635	0.634	0.712	1.487	1.619	1.712																																																																																				
531	0.502	0.577	0.510	0.549	0.546	0.532	0.632	0.631	0.710	1.487	1.619	1.712																																																																																				
532	0.498	0.572	0.506	0.544	0.541	0.527	0.629	0.628	0.706	1.487	1.619	1.711																																																																																				
533	0.495	0.567	0.502	0.541	0.537	0.524	0.626	0.625	0.703	1.486	1.617	1.709																																																																																				
534	0.492	0.564	0.499	0.537	0.534	0.520	0.623	0.623	0.700	1.484	1.615	1.707																																																																																				
535	0.488	0.559	0.495	0.533	0.530	0.516	0.620	0.620	0.697	1.481	1.612	1.703																																																																																				
536	0.484	0.555	0.491	0.529	0.525	0.512	0.617	0.616	0.693	1.477	1.607	1.699																																																																																				
537	0.481	0.550	0.487	0.524	0.521	0.508	0.613	0.613	0.689	1.472	1.601	1.693																																																																																				
538	0.477	0.545	0.483	0.519	0.517	0.504	0.610	0.610	0.686	1.466	1.595	1.686																																																																																				
539	0.473	0.540	0.479	0.515	0.512	0.499	0.606	0.606	0.682	1.460	1.588	1.679																																																																																				
540	0.469	0.535	0.474	0.510	0.507	0.494	0.602	0.602	0.677	1.452	1.579	1.670																																																																																				
541	0.465	0.530	0.470	0.506	0.503	0.490	0.599	0.599	0.674	1.446	1.572	1.661																																																																																				
542	0.462	0.526	0.466	0.502	0.499	0.487	0.595	0.596	0.670	1.438	1.565	1.653																																																																																				
543	0.458	0.522	0.463	0.498	0.495	0.483	0.592	0.593	0.667	1.431	1.556	1.645																																																																																				
544	0.455	0.516	0.458	0.493	0.490	0.478	0.588	0.589	0.663	1.422	1.547	1.634																																																																																				
545	0.450	0.511	0.453	0.488	0.485	0.473	0.584	0.585	0.658	1.412	1.535	1.621																																																																																				
546	0.446	0.505	0.448	0.482	0.480	0.468	0.580	0.581	0.653	1.402	1.524	1.609																																																																																				
547	0.441	0.500	0.444	0.477	0.475	0.463	0.575	0.577	0.649	1.392	1.513	1.598																																																																																				
548	0.437	0.494	0.439	0.472	0.470	0.459	0.571	0.573	0.645	1.382	1.502	1.585																																																																																				
549	0.433	0.489	0.435	0.467	0.465	0.454	0.567	0.570	0.640	1.372	1.491	1.574																																																																																				
550	0.429	0.483	0.429	0.462	0.460	0.449	0.563	0.565	0.635	1.360	1.478	1.560																																																																																				
551	0.425	0.477	0.424	0.457	0.455	0.444	0.558	0.561	0.631	1.350	1.467	1.548																																																																																				
552	0.420	0.471	0.419	0.451	0.449	0.438	0.554	0.556	0.625	1.339	1.454	1.535																																																																																				
553	0.415	0.465	0.414	0.445	0.444	0.433	0.549	0.552	0.621	1.328	1.442	1.522																																																																																				
554	0.411	0.459	0.409	0.440	0.438	0.428	0.544	0.547	0.615	1.317	1.430	1.509																																																																																				
555	0.407	0.454	0.404	0.434	0.433	0.423	0.540	0.543	0.611	1.308	1.420	1.498																																																																																				
556	0.402	0.447	0.398	0.428	0.427	0.417	0.535	0.538	0.605	1.296	1.407	1.485																																																																																				
557	0.397	0.441	0.393	0.423	0.422	0.412	0.530	0.533	0.600	1.287	1.397	1.474																																																																																				
558	0.392	0.435	0.388	0.416	0.416	0.406	0.525	0.528	0.594	1.276	1.385	1.461																																																																																				
559	0.386	0.428	0.382	0.410	0.409	0.400	0.519	0.523	0.588	1.266	1.374	1.449																																																																																				
560	0.381	0.421	0.376	0.404	0.403	0.394	0.514	0.517	0.582	1.257	1.363	1.438																																																																																				
561	0.376	0.415	0.370	0.398	0.398	0.389	0.509	0.512	0.576	1.249	1.354	1.428																																																																																				
562	0.371	0.409	0.365	0.392	0.392	0.383	0.504	0.508	0.571	1.241	1.346	1.419																																																																																				
563	0.367	0.404	0.361	0.388	0.388	0.379	0.500	0.503	0.566	1.236	1.340	1.413																																																																																				
564	0.362	0.398	0.355	0.382	0.382	0.373	0.494	0.498	0.560	1.229	1.332	1.405																																																																																				
565	0.357	0.391	0.349	0.375	0.376	0.367	0.489	0.492	0.554	1.223	1.325	1.397																																																																																				
566	0.352	0.385	0.344	0.370	0.370	0.362	0.484	0.487	0.548	1.217	1.319	1.391																																																																																				
567	0.347	0.379	0.339	0.364	0.365	0.357	0.479	0.482	0.542	1.213	1.314	1.386																																																																																				
568	0.342	0.374	0.334	0.359	0.359	0.352	0.474	0.477	0.536	1.209	1.310	1.382																																																																																				
569	0.337	0.368	0.329	0.353	0.354	0.346	0.469	0.472	0.531	1.206	1.306	1.377																																																																																				
570	0.332	0.362	0.324	0.347	0.348	0.341	0.464	0.467	0.525	1.203	1.303	1.374																																																																																				
571	0.327	0.356	0.318	0.342	0.343	0.335	0.458	0.462	0.519	1.201	1.301	1.372																																																																																				
572	0.322	0.350	0.313	0.336	0.337	0.330	0.454	0.456	0.513	1.200	1.299	1.370																																																																																				
573	0.317	0.345	0.309	0.331	0.332	0.325	0.449	0.452	0.507	1.199	1.298	1.369																																																																																				
574	0.313	0.339	0.304	0.326	0.327	0.320	0.444	0.447	0.502	1.198	1.298	1.369																																																																																				
575	0.308	0.334	0.299	0.321	0.322	0.315	0.439	0.442	0.496	1.199	1.298	1.370																																																																																				
576	0.303	0.329	0.295	0.316	0.318	0.311	0.435	0.437	0.491	1.199	1.299	1.371																																																																																				
577	0.299	0.324	0.291	0.311	0.313	0.306	0.431	0.433	0.486	1.200	1.300	1.372																																																																																				
578	0.294	0.319	0.286	0.306	0.308	0.302	0.426	0.428	0.480	1.202	1.302	1.374																																																																																				
579	0.290	0.313	0.281	0.301	0.303	0.297	0.422	0.423	0.475	1.204	1.304	1.377																																																																																				
580	0.285	0.308	0.277	0.296	0.298	0.292	0.417	0.418	0.469	1.206	1.307	1.380																																																																																				
581	0.281	0.304	0.273	0.292	0.294	0.287	0.413	0.414	0.465	1.208	1.309	1.383																																																																																				
582	0.277	0.299	0.268	0.287	0.289	0.283	0.409	0.409	0.460	1.210	1.312	1.385																																																																																				
583	0.272	0.294	0.264	0.283	0.285	0.279	0.405	0.405	0.455	1.213	1.315	1.389																																																																																				
584	0.268	0.289	0.260	0.278	0.281	0.275	0.402	0.401	0.450	1.215	1.318	1.393																																																																																				
585	0.264	0.285	0.256	0.274	0.276	0.271	0.398	0.397	0.446	1.217	1.321	1.396																																																																																				
586	0.260	0.281	0.252	0.270	0.272	0.266	0.395	0.393	0.441	1.220	1.324	1.399																																																																																				
587	0.257	0.276	0.248	0.265	0.268	0.262	0.391	0.390	0.437	1.222	1.326	1.402																																																																																				
588	0.253	0.272	0.245	0.262	0.264	0.259	0.388	0.386	0.433	1.223	1.329	1.405																																																																																				
589	0.250	0.269	0.242	0.258	0.261	0.255	0.386	0.383	0.430	1.224	1.330	1.407																																																																																				
590	0.247	0.265	0.238	0.255	0.257	0.252	0.383	0.380	0.426	1.225	1.332	1.409																																																																																				
591	0.243	0.261	0.235	0.251	0.254	0.248	0.381	0.377	0.423	1.225	1.333	1.410																																																																																				
592	0.240	0.258	0.232	0.248	0.251	0.246	0.379	0.375	0.420	1.224	1.333	1.410																																																																																				
593	0.238	0.255	0.230	0.245	0.248	0.242	0.377	0.373	0.418	1.224	1.333	1.410																																																																																				
594	0.235	0.251	0.227	0.241	0.245	0.239	0.375	0.370	0.415	1.223	1.332	1.410																																																																																				
595	0.232	0.248	0.224	0.238	0.241	0.236	0.374	0.368	0.413	1.221	1.330	1.408																																																																																				
596	0.229	0.245	0.221	0.235	0.238	0.234	0.372	0.366	0.411	1.218	1.328	1.406																																																																																				
597	0.227	0.242	0.218	0.233	0.236	0.231	0.371	0.365	0.409	1.215	1.326	1.404																																																																																				
598	0.225	0.239	0.216	0.230	0.234	0.229	0.370	0.364	0.407	1.212	1.323	1.401																																																																																				
599	0.222	0.236	0.214	0.227	0.231	0.226	0.370	0.362	0.406	1.208	1.319	1.396																																																																																				
600	0.220	0.234	0.211	0.225	0.228	0.224	0.369	0.361	0.405	1.203	1.314	1.391																																																																																				
601	0.217	0.231	0.208	0.222	0.225	0.221	0.368	0.360	0.404	1.196	1.307	1.384																																																																																				
602	0.215	0.228	0.206	0.219	0.223	0.218	0.368	0.359	0.403	1.189	1.301	1.377																																																																																				
603	0.213	0.226	0.204	0.217	0.221	0.216	0.368	0.359	0.402	1.182	1.294	1.370																																																																																				
604	0.211	0.223	0.202	0.215	0.219	0.214	0.368	0.359	0.402	1.175	1.287	1.362																																																																																				
605	0.209	0.221	0.200	0.213	0.217	0.212	0.369	0.359	0.402	1.168	1.280	1.355																																																																																				
606	0.207	0.219	0.199	0.211	0.215	0.210	0.370	0.359	0.402	1.160	1.272	1.346																																																																																				
607	0.206	0.217	0.197	0.209	0.213	0.208	0.370	0.359	0.402	1.152	1.263	1.337																																																																																				
608	0.204	0.214	0.194	0.206	0.211	0.206	0.372	0.360	0.403	1.141	1.252	1.325																																																																																				
609	0.202	0.212	0.193	0.205	0.209	0.204	0.373	0.361	0.404	1.130	1.242	1.314																																																																																				
610	0.201	0.211	0.191	0.203	0.207	0.203	0.374	0.361	0.405	1.122	1.232	1.304																																																																																				
611	0.199	0.209	0.190	0.202	0.206	0.201	0.376	0.363	0.406	1.112	1.222	1.293																																																																																				
612	0.198	0.207	0.188	0.200	0.204	0.199	0.377	0.364	0.407	1.101	1.210	1.281																																																																																				
613	0.197	0.205	0.187	0.198	0.202	0.198	0.380	0.365	0.409	1.089	1.198	1.268																																																																																				
614	0.195	0.204	0.185	0.196	0.201	0.196	0.382	0.367	0.411	1.076	1.185	1.254																																																																																				
615	0.194	0.202	0.183	0.195	0.199	0.195	0.385	0.369	0.413	1.063	1.172	1.240																																																																																				
616	0.192	0.200	0.182	0.193	0.198	0.193	0.387	0.372	0.416	1.051	1.158	1.226																																																																																				
617	0.191	0.199	0.181	0.192	0.196	0.192	0.390	0.374	0.418	1.038	1.145	1.212																																																																																				
618	0.190	0.198	0.179	0.190	0.195	0.191	0.394	0.377	0.421	1.026	1.131	1.197																																																																																				
619	0.189	0.196	0.178	0.189	0.194	0.189	0.397	0.379	0.424	1.013	1.117	1.182																																																																																				
620	0.188	0.194	0.177	0.188	0.192	0.188	0.401	0.383	0.428	0.997	1.101	1.165																																																																																				
621	0.187	0.193	0.176	0.186	0.191	0.187	0.406	0.386	0.432	0.982	1.086	1.149																																																																																				
622	0.186	0.192	0.175	0.185	0.190	0.186	0.410	0.390	0.436	0.968	1.071	1.133																																																																																				
623	0.185	0.191	0.173	0.184	0.189	0.184	0.414	0.394	0.441	0.954	1.055	1.117																																																																																				
624	0.184	0.189	0.172	0.182	0.188	0.183	0.419	0.399	0.445	0.939	1.040	1.100																																																																																				
625	0.183	0.188	0.171	0.182	0.187	0.182	0.424	0.403	0.450	0.925	1.024	1.084																																																																																				
626	0.182	0.187	0.170	0.181	0.186	0.181	0.430	0.408	0.456	0.910	1.009	1.067																																																																																				
627	0.181	0.186	0.170	0.180	0.185	0.180	0.436	0.413	0.461	0.896	0.993	1.051																																																																																				
628	0.181	0.185	0.169	0.179	0.184	0.180	0.441	0.418	0.467	0.881	0.978	1.035																																																																																				
629	0.180	0.184	0.168	0.178	0.183	0.179	0.448	0.424	0.473	0.867	0.962	1.017																																																																																				
630	0.179	0.183	0.167	0.177	0.182	0.178	0.454	0.429	0.480	0.852	0.945	1.000																																																																																				
631	0.179	0.182	0.166	0.176	0.181	0.177	0.460	0.435	0.486	0.838	0.931	0.985																																																																																				
632	0.178	0.181	0.165	0.175	0.180	0.176	0.468	0.442	0.493	0.823	0.915	0.968																																																																																				
633	0.178	0.181	0.165	0.174	0.180	0.176	0.475	0.448	0.501	0.808	0.898	0.950																																																																																				
634	0.177	0.180	0.164	0.174	0.179	0.175	0.483	0.455	0.508	0.793	0.882	0.933																																																																																				
635	0.177	0.179	0.163	0.173	0.178	0.174	0.492	0.463	0.517	0.777	0.865	0.915																																																																																				
636	0.176	0.178	0.163	0.172	0.178	0.174	0.501	0.471	0.526	0.762	0.849	0.898																																																																																				
637	0.176	0.178	0.162	0.172	0.177	0.173	0.509	0.479	0.535	0.748	0.834	0.882																																																																																				
638	0.175	0.177	0.161	0.171	0.176	0.172	0.519	0.488	0.544	0.732	0.817	0.864																																																																																				
639	0.175	0.176	0.161	0.170	0.176	0.172	0.529	0.497	0.555	0.719	0.800	0.847																																																																																				
640	0.175	0.176	0.160	0.170	0.175	0.171	0.539	0.507	0.565	0.703	0.784	0.830																																																																																				
641	0.174	0.175	0.160	0.169	0.175	0.171	0.549	0.516	0.576	0.689	0.769	0.813																																																																																				
642	0.174	0.175	0.159	0.169	0.174	0.171	0.561	0.526	0.587	0.674	0.753	0.796																																																																																				
643	0.174	0.174	0.159	0.168	0.174	0.170	0.572	0.537	0.599	0.660	0.738	0.780																																																																																				
644	0.174	0.174	0.159	0.168	0.173	0.170	0.584	0.548	0.611	0.647	0.722	0.763																																																																																				
645	0.174	0.173	0.158	0.167	0.173	0.169	0.597	0.559	0.624	0.633	0.707	0.747																																																																																				
646	0.173	0.173	0.158	0.167	0.172	0.169	0.609	0.571	0.637	0.619	0.693	0.732																																																																																				
647	0.173	0.172	0.157	0.166	0.172	0.168	0.623	0.583	0.651	0.606	0.677	0.716																																																																																				
648	0.173	0.172	0.157	0.166	0.172	0.168	0.636	0.596	0.665	0.593	0.663	0.701																																																																																				
649	0.173	0.172	0.157	0.166	0.172	0.168	0.651	0.610	0.681	0.580	0.649	0.685																																																																																				
650	0.173	0.171	0.156	0.166	0.171	0.167	0.665	0.624	0.696	0.567	0.635	0.671																																																																																				
651	0.173	0.171	0.156	0.165	0.171	0.167	0.680	0.637	0.711	0.555	0.622	0.657																																																																																				
652	0.173	0.171	0.156	0.165	0.171	0.167	0.694	0.651	0.726	0.544	0.610	0.644																																																																																				
653	0.173	0.171	0.156	0.165	0.171	0.167	0.710	0.665	0.742	0.533	0.597	0.631																																																																																				
654	0.173	0.170	0.155	0.165	0.170	0.167	0.726	0.681	0.759	0.521	0.585	0.618																																																																																				
655	0.173	0.170	0.155	0.164	0.170	0.166	0.742	0.696	0.777	0.510	0.572	0.605																																																																																				
656	0.174	0.170	0.155	0.164	0.170	0.166	0.759	0.713	0.796	0.499	0.560	0.591																																																																																				
657	0.174	0.170	0.155	0.164	0.170	0.166	0.777	0.730	0.815	0.488	0.548	0.579																																																																																				
658	0.174	0.170	0.155	0.164	0.170	0.166	0.795	0.747	0.834	0.478	0.537	0.567																																																																																				
659	0.174	0.170	0.155	0.164	0.170	0.166	0.813	0.765	0.854	0.468	0.526	0.555																																																																																				
660	0.175	0.170	0.155	0.164	0.170	0.166	0.830	0.781	0.872	0.460	0.516	0.545																																																																																				
661	0.175	0.170	0.155	0.164	0.170	0.166	0.849	0.799	0.893	0.449	0.505	0.533																																																																																				
662	0.175	0.170	0.155	0.164	0.170	0.166	0.869	0.818	0.914	0.440	0.494	0.522																																																																																				
663	0.176	0.170	0.155	0.164	0.170	0.166	0.886	0.836	0.933	0.432	0.485	0.512																																																																																				
664	0.176	0.170	0.155	0.164	0.170	0.166	0.906	0.855	0.955	0.423	0.476	0.502																																																																																				
665	0.176	0.170	0.155	0.164	0.170	0.167	0.924	0.874	0.976	0.415	0.467	0.492																																																																																				
666	0.177	0.170	0.155	0.164	0.170	0.166	0.944	0.892	0.997	0.407	0.458	0.483																																																																																				
667	0.177	0.170	0.155	0.164	0.170	0.167	0.965	0.913	1.021	0.398	0.448	0.473																																																																																				
668	0.178	0.170	0.155	0.164	0.171	0.167	0.986	0.934	1.044	0.390	0.440	0.463																																																																																				
669	0.178	0.171	0.155	0.164	0.171	0.167	1.007	0.955	1.068	0.383	0.431	0.454																																																																																				
670	0.179	0.171	0.155	0.165	0.171	0.167	1.027	0.975	1.091	0.376	0.423	0.446																																																																																				
671	0.180	0.171	0.155	0.165	0.171	0.168	1.047	0.995	1.113	0.369	0.415	0.438																																																																																				
672	0.180	0.172	0.156	0.165	0.171	0.168	1.067	1.016	1.136	0.361	0.407	0.429																																																																																				
673	0.181	0.172	0.156	0.165	0.172	0.168	1.089	1.037	1.161	0.355	0.400	0.421																																																																																				
674	0.182	0.172	0.156	0.166	0.172	0.168	1.110	1.059	1.185	0.348	0.392	0.413																																																																																				
675	0.182	0.172	0.156	0.166	0.172	0.169	1.130	1.079	1.208	0.342	0.385	0.406																																																																																				
676	0.183	0.173	0.157	0.166	0.173	0.169	1.151	1.101	1.233	0.335	0.378	0.399																																																																																				
677	0.184	0.173	0.157	0.167	0.173	0.170	1.172	1.122	1.256	0.329	0.371	0.391																																																																																				
678	0.185	0.173	0.157	0.167	0.174	0.170	1.191	1.142	1.280	0.324	0.365	0.385																																																																																				
679	0.186	0.174	0.158	0.168	0.174	0.170	1.211	1.164	1.304	0.318	0.358	0.378																																																																																				
680	0.187	0.175	0.158	0.168	0.175	0.171	1.232	1.185	1.328	0.312	0.352	0.371																																																																																				
681	0.188	0.175	0.159	0.169	0.175	0.172	1.252	1.206	1.351	0.307	0.346	0.365																																																																																				
682	0.189	0.176	0.159	0.169	0.176	0.172	1.271	1.224	1.374	0.302	0.341	0.359																																																																																				
683	0.190	0.177	0.160	0.170	0.176	0.173	1.288	1.244	1.396	0.297	0.335	0.353																																																																																				
684	0.191	0.177	0.160	0.170	0.177	0.173	1.307	1.263	1.417	0.292	0.330	0.348																																																																																				
685	0.193	0.178	0.161	0.171	0.178	0.174	1.325	1.282	1.440	0.288	0.324	0.342																																																																																				
686	0.194	0.179	0.161	0.172	0.178	0.174	1.343	1.303	1.463	0.283	0.319	0.336																																																																																				
687	0.195	0.180	0.162	0.172	0.179	0.175	1.361	1.322	1.485	0.278	0.313	0.331																																																																																				
688	0.197	0.180	0.163	0.173	0.180	0.176	1.378	1.340	1.506	0.274	0.309	0.326																																																																																				
689	0.198	0.181	0.164	0.174	0.181	0.177	1.394	1.357	1.526	0.270	0.304	0.321																																																																																				
690	0.200	0.182	0.164	0.175	0.182	0.178	1.408	1.373	1.544	0.266	0.300	0.316																																																																																				
691	0.201	0.183	0.165	0.176	0.183	0.179	1.421	1.388	1.561	0.263	0.296	0.312																																																																																				
692	0.203	0.184	0.166	0.176	0.184	0.180	1.435	1.403	1.579	0.259	0.292	0.308																																																																																				
693	0.204	0.185	0.167	0.177	0.185	0.181	1.448	1.419	1.597	0.255	0.287	0.303																																																																																				
694	0.206	0.186	0.168	0.179	0.186	0.182	1.460	1.432	1.612	0.252	0.283	0.299																																																																																				
695	0.208	0.188	0.169	0.179	0.187	0.183	1.470	1.444	1.627	0.248	0.280	0.295																																																																																				
696	0.209	0.189	0.169	0.181	0.188	0.184	1.481	1.457	1.641	0.245	0.276	0.291																																																																																				
697	0.212	0.190	0.171	0.182	0.189	0.185	1.492	1.469	1.657	0.242	0.272	0.287																																																																																				
698	0.213	0.191	0.172	0.183	0.190	0.186	1.500	1.479	1.668	0.239	0.269	0.284																																																																																				
699	0.215	0.193	0.173	0.184	0.191	0.187	1.507	1.488	1.679	0.236	0.266	0.281																																																																																				
700	0.217	0.194	0.174	0.185	0.193	0.188	1.514	1.496	1.688	0.234	0.263	0.278																																																																																				
701	0.219	0.195	0.175	0.186	0.194	0.190	1.519	1.504	1.698	0.231	0.260	0.275																																																																																				
702	0.222	0.197	0.176	0.188	0.195	0.191	1.524	1.511	1.706	0.229	0.257	0.272																																																																																				
703	0.224	0.199	0.177	0.189	0.197	0.193	1.529	1.517	1.714	0.226	0.254	0.269																																																																																				
704	0.226	0.200	0.179	0.191	0.198	0.194	1.532	1.522	1.721	0.224	0.252	0.266																																																																																				
705	0.229	0.202	0.180	0.192	0.200	0.196	1.534	1.526	1.726	0.222	0.249	0.263																																																																																				
706	0.231	0.203	0.181	0.194	0.202	0.197	1.536	1.529	1.730	0.220	0.247	0.261																																																																																				
707	0.234	0.205	0.183	0.195	0.203	0.199	1.537	1.531	1.734	0.217	0.245	0.259																																																																																				
708	0.236	0.207	0.185	0.197	0.206	0.201	1.536	1.533	1.736	0.216	0.243	0.256																																																																																				
709	0.239	0.209	0.186	0.199	0.207	0.202	1.536	1.534	1.738	0.214	0.241	0.254																																																																																				
710	0.242	0.211	0.188	0.201	0.209	0.204	1.534	1.534	1.739	0.212	0.239	0.252																																																																																				
711	0.245	0.212	0.190	0.202	0.211	0.206	1.531	1.533	1.738	0.210	0.237	0.250																																																																																				
712	0.248	0.215	0.191	0.204	0.213	0.208	1.528	1.531	1.738	0.209	0.235	0.248																																																																																				
713	0.251	0.217	0.194	0.206	0.215	0.210	1.524	1.529	1.735	0.207	0.234	0.247																																																																																				
714	0.255	0.219	0.195	0.208	0.217	0.212	1.520	1.525	1.732	0.206	0.232	0.245																																																																																				
715	0.258	0.221	0.197	0.210	0.220	0.214	1.514	1.521	1.728	0.204	0.230	0.243																																																																																				
716	0.261	0.224	0.199	0.212	0.222	0.216	1.508	1.516	1.724	0.203	0.229	0.241																																																																																				
717	0.265	0.226	0.201	0.215	0.224	0.218	1.501	1.511	1.718	0.202	0.227	0.240																																																																																				
718	0.268	0.229	0.203	0.216	0.226	0.221	1.494	1.505	1.712	0.201	0.226	0.238																																																																																				
719	0.272	0.231	0.205	0.219	0.228	0.223	1.486	1.498	1.704	0.199	0.224	0.237																																																																																				
720	0.275	0.234	0.207	0.221	0.231	0.225	1.478	1.490	1.696	0.198	0.223	0.235																																																																																				
721	0.280	0.237	0.210	0.224	0.233	0.228	1.468	1.482	1.687	0.197	0.221	0.234																																																																																				
722	0.284	0.239	0.212	0.226	0.236	0.230	1.458	1.472	1.677	0.196	0.220	0.233																																																																																				
723	0.288	0.242	0.214	0.229	0.239	0.233	1.446	1.462	1.667	0.195	0.219	0.232																																																																																				
724	0.292	0.245	0.217	0.231	0.241	0.236	1.435	1.452	1.656	0.194	0.218	0.230																																																																																				
725	0.297	0.248	0.219	0.234	0.244	0.238	1.424	1.442	1.644	0.193	0.217	0.229																																																																																				
726	0.301	0.252	0.222	0.237	0.247	0.241	1.413	1.431	1.633	0.192	0.216	0.228																																																																																				
727	0.306	0.255	0.224	0.240	0.250	0.244	1.400	1.419	1.620	0.191	0.214	0.227																																																																																				
728	0.312	0.259	0.228	0.243	0.254	0.247	1.386	1.406	1.605	0.190	0.214	0.226																																																																																				
729	0.317	0.263	0.231	0.247	0.257	0.251	1.372	1.393	1.591	0.190	0.213	0.225																																																																																				
730	0.322	0.266	0.234	0.250	0.260	0.254	1.359	1.381	1.578	0.189	0.212	0.225																																																																																				
731	0.328	0.270	0.237	0.253	0.263	0.257	1.345	1.367	1.562	0.188	0.211	0.224																																																																																				
732	0.334	0.274	0.240	0.257	0.267	0.261	1.332	1.354	1.547	0.188	0.211	0.223																																																																																				
733	0.339	0.278	0.243	0.260	0.271	0.264	1.317	1.339	1.533	0.188	0.210	0.223																																																																																				
734	0.345	0.282	0.247	0.264	0.274	0.267	1.303	1.327	1.518	0.187	0.210	0.222																																																																																				
735	0.351	0.286	0.250	0.268	0.278	0.271	1.288	1.312	1.502	0.186	0.209	0.222																																																																																				
736	0.357	0.291	0.254	0.271	0.282	0.275	1.272	1.297	1.484	0.186	0.209	0.221																																																																																				
737	0.364	0.295	0.257	0.275	0.286	0.279	1.257	1.281	1.467	0.185	0.208	0.220																																																																																				
738	0.371	0.300	0.261	0.279	0.290	0.283	1.241	1.266	1.450	0.185	0.207	0.220																																																																																				
739	0.377	0.304	0.265	0.283	0.294	0.286	1.225	1.250	1.432	0.184	0.207	0.219																																																																																				
740	0.384	0.309	0.269	0.287	0.298	0.290	1.209	1.234	1.414	0.184	0.206	0.218																																																																																				
741	0.391	0.313	0.272	0.291	0.302	0.294	1.193	1.219	1.397	0.183	0.205	0.218																																																																																				
742	0.399	0.318	0.276	0.296	0.306	0.299	1.176	1.202	1.379	0.183	0.205	0.217																																																																																				
743	0.406	0.323	0.280	0.300	0.311	0.303	1.160	1.186	1.360	0.182	0.204	0.216																																																																																				
744	0.414	0.328	0.284	0.305	0.316	0.307	1.144	1.169	1.342	0.182	0.204	0.216																																																																																				
745	0.422	0.334	0.289	0.309	0.320	0.312	1.127	1.153	1.323	0.181	0.203	0.215																																																																																				
746	0.430	0.339	0.293	0.314	0.325	0.317	1.112	1.137	1.305	0.180	0.202	0.215																																																																																				
747	0.439	0.345	0.298	0.319	0.330	0.322	1.094	1.120	1.285	0.180	0.202	0.214																																																																																				
748	0.448	0.350	0.302	0.324	0.335	0.327	1.078	1.104	1.267	0.179	0.201	0.213																																																																																				
749	0.457	0.356	0.308	0.330	0.341	0.332	1.061	1.086	1.248	0.179	0.201	0.213																																																																																				
750	0.466	0.362	0.312	0.335	0.346	0.337	1.045	1.071	1.229	0.178	0.200	0.212																																																																																				
751	0.475	0.368	0.317	0.340	0.351	0.342	1.029	1.055	1.212	0.178	0.200	0.212																																																																																				
752	0.484	0.374	0.322	0.345	0.357	0.347	1.014	1.039	1.194	0.178	0.199	0.212																																																																																				
753	0.494	0.380	0.327	0.351	0.362	0.353	0.999	1.024	1.176	0.177	0.199	0.211																																																																																				
754	0.504	0.387	0.333	0.356	0.368	0.358	0.983	1.008	1.158	0.177	0.199	0.211																																																																																				
755	0.514	0.394	0.338	0.362	0.374	0.364	0.968	0.992	1.140	0.176	0.198	0.210																																																																																				
756	0.524	0.401	0.344	0.369	0.381	0.370	0.952	0.977	1.122	0.176	0.198	0.210																																																																																				
757	0.535	0.408	0.350	0.375	0.387	0.377	0.937	0.961	1.105	0.176	0.197	0.209																																																																																				
758	0.549	0.416	0.357	0.382	0.395	0.384	0.919	0.943	1.085	0.175	0.197	0.209																																																																																				
759	0.560	0.424	0.363	0.389	0.402	0.391	0.904	0.928	1.067	0.175	0.197	0.209																																																																																				
760	0.572	0.432	0.370	0.396	0.409	0.398	0.889	0.912	1.049	0.174	0.196	0.208																																																																																				
761	0.586	0.440	0.377	0.404	0.417	0.405	0.873	0.895	1.030	0.174	0.196	0.208																																																																																				
762	0.599	0.449	0.384	0.412	0.425	0.413	0.857	0.879	1.011	0.173	0.195	0.207																																																																																				
763	0.611	0.457	0.391	0.419	0.432	0.420	0.843	0.865	0.996	0.173	0.195	0.207																																																																																				
764	0.622	0.464	0.396	0.425	0.439	0.426	0.831	0.853	0.982	0.173	0.194	0.206																																																																																				
765	0.633	0.471	0.402	0.431	0.445	0.432	0.820	0.842	0.969	0.173	0.194	0.206																																																																																				
766	0.645	0.479	0.409	0.439	0.452	0.440	0.807	0.829	0.954	0.172	0.194	0.206																																																																																				
767	0.659	0.489	0.417	0.447	0.461	0.448	0.793	0.814	0.937	0.172	0.193	0.205																																																																																				
768	0.675	0.499	0.425	0.456	0.470	0.457	0.778	0.799	0.920	0.171	0.193	0.205																																																																																				
769	0.689	0.509	0.433	0.465	0.479	0.466	0.765	0.785	0.904	0.171	0.193	0.205																																																																																				
770	0.705	0.519	0.442	0.474	0.488	0.474	0.751	0.771	0.887	0.171	0.192	0.204																																																																																				
771	0.720	0.528	0.450	0.482	0.497	0.483	0.738	0.758	0.873	0.170	0.192	0.204																																																																																				
772	0.734	0.538	0.458	0.491	0.506	0.492	0.726	0.746	0.858	0.170	0.191	0.204																																																																																				
773	0.751	0.549	0.467	0.501	0.516	0.502	0.713	0.732	0.843	0.169	0.191	0.203																																																																																				
774	0.767	0.559	0.475	0.511	0.526	0.511	0.701	0.719	0.828	0.169	0.191	0.203																																																																																				
775	0.783	0.570	0.484	0.520	0.535	0.520	0.689	0.707	0.813	0.168	0.190	0.202																																																																																				
776	0.799	0.581	0.494	0.530	0.545	0.530	0.676	0.694	0.799	0.168	0.190	0.202																																																																																				
777	0.816	0.593	0.503	0.540	0.556	0.541	0.664	0.682	0.785	0.168	0.189	0.201																																																																																				
778	0.834	0.605	0.513	0.552	0.567	0.552	0.652	0.670	0.771	0.167	0.189	0.201																																																																																				
779	0.852	0.616	0.523	0.563	0.579	0.562	0.640	0.657	0.757	0.167	0.188	0.201																																																																																				
780	0.871	0.629	0.534	0.574	0.590	0.574	0.628	0.646	0.743	0.166	0.188	0.200																																																																																				
781	0.889	0.641	0.544	0.585	0.602	0.585	0.617	0.634	0.730	0.166	0.187	0.200																																																																																				
782	0.907	0.653	0.554	0.596	0.613	0.596	0.606	0.623	0.717	0.165	0.187	0.199																																																																																				
783	0.925	0.666	0.565	0.608	0.625	0.608	0.596	0.612	0.705	0.165	0.186	0.199																																																																																				
784	0.945	0.680	0.576	0.620	0.637	0.620	0.585	0.601	0.692	0.164	0.186	0.198																																																																																				
785	0.965	0.693	0.588	0.633	0.651	0.633	0.574	0.589	0.678	0.164	0.185	0.198																																																																																				
786	0.987	0.708	0.600	0.646	0.665	0.647	0.563	0.578	0.666	0.163	0.185	0.197																																																																																				
787	1.007	0.723	0.613	0.660	0.678	0.660	0.552	0.568	0.652	0.163	0.184	0.197																																																																																				
788	1.028	0.737	0.625	0.673	0.692	0.673	0.542	0.557	0.641	0.162	0.184	0.196																																																																																				
789	1.047	0.751	0.636	0.686	0.704	0.686	0.533	0.547	0.630	0.162	0.183	0.196																																																																																				
790	1.067	0.765	0.648	0.698	0.718	0.699	0.524	0.538	0.620	0.161	0.183	0.195																																																																																				
791	1.087	0.779	0.660	0.712	0.731	0.713	0.515	0.529	0.609	0.161	0.182	0.195																																																																																				
792	1.113	0.797	0.675	0.728	0.748	0.729	0.504	0.518	0.596	0.160	0.182	0.194																																																																																				
793	1.133	0.811	0.688	0.742	0.762	0.743	0.495	0.509	0.586	0.160	0.181	0.194																																																																																				
794	1.154	0.828	0.701	0.757	0.778	0.758	0.486	0.499	0.574	0.159	0.181	0.193																																																																																				
795	1.178	0.844	0.716	0.773	0.794	0.773	0.477	0.490	0.563	0.159	0.180	0.192																																																																																				
796	1.198	0.859	0.729	0.787	0.808	0.787	0.469	0.482	0.554	0.158	0.180	0.192																																																																																				
797	1.220	0.875	0.742	0.803	0.823	0.803	0.461	0.473	0.544	0.158	0.179	0.192																																																																																				
798	1.242	0.892	0.756	0.818	0.840	0.819	0.453	0.465	0.534	0.157	0.179	0.191																																																																																				
799	1.265	0.909	0.770	0.834	0.856	0.835	0.444	0.456	0.524	0.157	0.178	0.190																																																																																				
800	1.288	0.926	0.786	0.850	0.872	0.852	0.436	0.448	0.515	0.156	0.177	0.190																																																																																				
801	1.313	0.945	0.802	0.868	0.891	0.869	0.427	0.439	0.505	0.155	0.177	0.189																																																																																				
802	1.334	0.961	0.816	0.884	0.907	0.885	0.420	0.432	0.496	0.155	0.176	0.189																																																																																				
803	1.357	0.979	0.830	0.900	0.924	0.902	0.414	0.424	0.487	0.154	0.176	0.188																																																																																				
804	1.381	0.998	0.847	0.918	0.943	0.920	0.406	0.416	0.478	0.154	0.175	0.187																																																																																				
805	1.403	1.016	0.863	0.936	0.960	0.938	0.398	0.409	0.470	0.153	0.175	0.187																																																																																				
806	1.425	1.033	0.877	0.952	0.977	0.954	0.392	0.402	0.462	0.153	0.174	0.186																																																																																				
807	1.448	1.052	0.894	0.970	0.996	0.973	0.385	0.395	0.453	0.152	0.173	0.186																																																																																				
808	1.470	1.069	0.909	0.987	1.013	0.990	0.379	0.389	0.446	0.151	0.173	0.185																																																																																				
809	1.493	1.088	0.925	1.005	1.031	1.009	0.372	0.382	0.438	0.151	0.172	0.185																																																																																				
810	1.515	1.106	0.941	1.022	1.049	1.026	0.366	0.375	0.431	0.150	0.172	0.184																																																																																				
811	1.539	1.127	0.958	1.042	1.070	1.046	0.359	0.369	0.423	0.150	0.171	0.183																																																																																				
812	1.562	1.145	0.975	1.061	1.089	1.065	0.353	0.362	0.415	0.149	0.171	0.183																																																																																				
813	1.586	1.166	0.993	1.080	1.109	1.084	0.346	0.356	0.408	0.149	0.170	0.182																																																																																				
814	1.609	1.185	1.010	1.099	1.128	1.104	0.341	0.350	0.401	0.148	0.170	0.182																																																																																				
815	1.630	1.205	1.027	1.119	1.148	1.123	0.335	0.343	0.394	0.148	0.169	0.181																																																																																				
816	1.657	1.229	1.047	1.141	1.171	1.147	0.328	0.336	0.386	0.147	0.168	0.180																																																																																				
817	1.678	1.247	1.064	1.160	1.190	1.166	0.323	0.331	0.379	0.146	0.168	0.180																																																																																				
818	1.701	1.269	1.082	1.182	1.211	1.187	0.317	0.325	0.373	0.146	0.168	0.179																																																																																				
819	1.725	1.292	1.102	1.203	1.234	1.210	0.311	0.319	0.365	0.145	0.167	0.179																																																																																				
820	1.753	1.318	1.126	1.230	1.262	1.236	0.305	0.312	0.357	0.145	0.167	0.178																																																																																				
821	1.779	1.343	1.147	1.255	1.288	1.261	0.298	0.305	0.350	0.144	0.166	0.177																																																																																				
822	1.798	1.361	1.163	1.272	1.305	1.280	0.294	0.301	0.345	0.144	0.165	0.177																																																																																				
823	1.812	1.374	1.175	1.285	1.318	1.293	0.291	0.299	0.342	0.144	0.165	0.177																																																																																				
824	1.823	1.386	1.185	1.297	1.329	1.304	0.289	0.296	0.339	0.143	0.164	0.177																																																																																				
825	1.838	1.401	1.198	1.311	1.344	1.320	0.286	0.293	0.335	0.143	0.164	0.176																																																																																				
826	1.864	1.427	1.221	1.338	1.372	1.346	0.280	0.287	0.328	0.143	0.164	0.176																																																																																				
827	1.888	1.453	1.244	1.363	1.397	1.372	0.275	0.281	0.322	0.142	0.164	0.175																																																																																				
828	1.907	1.472	1.262	1.383	1.418	1.393	0.271	0.278	0.318	0.142	0.163	0.175																																																																																				
829	1.920	1.488	1.275	1.398	1.433	1.408	0.268	0.275	0.314	0.142	0.163	0.175																																																																																				
830	1.937	1.505	1.292	1.417	1.452	1.426	0.265	0.271	0.310	0.142	0.163	0.175																																																																																				
831	1.958	1.530	1.313	1.441	1.477	1.451	0.261	0.266	0.304	0.142	0.162	0.174																																																																																				
832	1.984	1.561	1.341	1.472	1.510	1.483	0.255	0.260	0.297	0.141	0.162	0.174																																																																																				
833	2.003	1.585	1.362	1.497	1.534	1.508	0.250	0.256	0.291	0.141	0.162	0.173																																																																																				
834	2.017	1.602	1.378	1.514	1.552	1.525	0.247	0.252	0.288	0.140	0.161	0.173																																																																																				
835	2.031	1.619	1.392	1.531	1.569	1.543	0.244	0.249	0.285	0.140	0.161	0.173																																																																																				
836	2.043	1.634	1.406	1.546	1.585	1.558	0.242	0.247	0.281	0.140	0.160	0.172																																																																																				
837	2.058	1.653	1.423	1.566	1.605	1.578	0.238	0.243	0.277	0.139	0.160	0.172																																																																																				
838	2.074	1.676	1.444	1.590	1.629	1.603	0.234	0.239	0.272	0.138	0.159	0.171																																																																																				
839	2.089	1.700	1.465	1.614	1.653	1.626	0.230	0.234	0.267	0.138	0.158	0.170																																																																																				
840	2.103	1.719	1.483	1.635	1.674	1.647	0.226	0.231	0.263	0.137	0.158	0.170																																																																																				
841	2.116	1.737	1.499	1.653	1.693	1.667	0.223	0.228	0.260	0.137	0.157	0.169																																																																																				
842	2.127	1.753	1.514	1.669	1.709	1.682	0.221	0.225	0.256	0.136	0.157	0.168																																																																																				
843	2.136	1.771	1.530	1.688	1.728	1.702	0.218	0.222	0.253	0.135	0.156	0.168																																																																																				
844	2.150	1.792	1.549	1.710	1.751	1.725	0.214	0.218	0.248	0.135	0.155	0.167																																																																																				
845	2.160	1.812	1.567	1.730	1.772	1.745	0.211	0.215	0.245	0.134	0.155	0.166																																																																																				
846	2.171	1.831	1.584	1.750	1.791	1.764	0.208	0.212	0.241	0.134	0.154	0.166																																																																																				
847	2.179	1.848	1.601	1.768	1.809	1.782	0.205	0.209	0.237	0.133	0.153	0.165																																																																																				
848	2.187	1.863	1.615	1.784	1.827	1.799	0.203	0.206	0.234	0.132	0.153	0.164																																																																																				
849	2.194	1.882	1.631	1.803	1.846	1.818	0.200	0.203	0.231	0.132	0.152	0.164																																																																																				
850	2.201	1.898	1.646	1.820	1.863	1.835	0.198	0.201	0.228	0.131	0.151	0.163																																																																																				
851	2.209	1.913	1.661	1.836	1.880	1.852	0.195	0.198	0.225	0.131	0.151	0.162																																																																																				
852	2.214	1.931	1.677	1.856	1.900	1.871	0.192	0.195	0.222	0.130	0.150	0.162																																																																																				
853	2.218	1.947	1.691	1.871	1.914	1.887	0.190	0.193	0.219	0.129	0.149	0.161																																																																																				
854	2.224	1.963	1.706	1.889	1.932	1.904	0.187	0.190	0.216	0.129	0.149	0.160																																																																																				
855	2.228	1.978	1.720	1.905	1.947	1.919	0.185	0.188	0.213	0.129	0.148	0.160																																																																																				
856	2.231	1.993	1.735	1.921	1.965	1.937	0.183	0.185	0.210	0.128	0.147	0.159																																																																																				
857	2.237	2.008	1.749	1.936	1.981	1.953	0.181	0.183	0.208	0.128	0.147	0.158																																																																																				
858	2.239	2.022	1.761	1.952	1.997	1.968	0.178	0.181	0.205	0.127	0.146	0.158																																																																																				
859	2.237	2.037	1.775	1.967	2.012	1.984	0.176	0.178	0.202	0.126	0.146	0.157																																																																																				
860	2.239	2.047	1.786	1.982	2.025	1.995	0.174	0.176	0.200	0.126	0.145	0.156																																																																																				
861	2.240	2.061	1.798	1.994	2.038	2.010	0.173	0.175	0.198	0.126	0.145	0.156																																																																																				
862	2.239	2.073	1.810	2.009	2.051	2.023	0.171	0.172	0.195	0.125	0.144	0.155																																																																																				
863	2.240	2.086	1.821	2.021	2.064	2.037	0.169	0.171	0.194	0.124	0.144	0.154																																																																																				
864	2.240	2.098	1.834	2.034	2.079	2.050	0.167	0.169	0.191	0.124	0.143	0.154																																																																																				
865	2.236	2.109	1.843	2.047	2.090	2.062	0.166	0.167	0.189	0.124	0.143	0.153																																																																																				
866	2.234	2.122	1.855	2.059	2.104	2.075	0.164	0.165	0.187	0.123	0.142	0.153																																																																																				
867	2.232	2.132	1.865	2.071	2.114	2.086	0.163	0.164	0.186	0.123	0.142	0.153																																																																																				
868	2.228	2.142	1.875	2.083	2.125	2.097	0.161	0.162	0.183	0.123	0.141	0.152																																																																																				
869	2.224	2.151	1.885	2.095	2.136	2.107	0.160	0.160	0.182	0.123	0.141	0.152																																																																																				
870	2.218	2.161	1.894	2.104	2.147	2.117	0.159	0.159	0.180	0.122	0.140	0.152																																																																																				
871	2.215	2.170	1.903	2.114	2.156	2.126	0.158	0.158	0.179	0.122	0.140	0.151																																																																																				
872	2.209	2.179	1.911	2.125	2.166	2.137	0.156	0.156	0.177	0.122	0.140	0.151																																																																																				
873	2.201	2.186	1.919	2.134	2.175	2.143	0.155	0.155	0.176	0.122	0.139	0.151																																																																																				
874	2.196	2.197	1.926	2.142	2.184	2.153	0.154	0.154	0.174	0.121	0.139	0.150																																																																																				
875	2.188	2.203	1.934	2.150	2.192	2.160	0.152	0.152	0.173	0.121	0.139	0.150																																																																																				
876	2.180	2.209	1.942	2.159	2.201	2.167	0.151	0.151	0.171	0.121	0.138	0.149																																																																																				
877	2.170	2.215	1.948	2.166	2.206	2.175	0.149	0.149	0.169	0.120	0.138	0.148																																																																																				
878	2.157	2.223	1.954	2.175	2.215	2.182	0.148	0.147	0.166	0.119	0.137	0.147																																																																																				
879	2.142	2.228	1.960	2.181	2.222	2.188	0.145	0.145	0.164	0.118	0.136	0.146																																																																																				
880	2.132	2.233	1.965	2.187	2.227	2.194	0.143	0.143	0.162	0.117	0.135	0.145																																																																																				
881	2.126	2.237	1.969	2.191	2.231	2.198	0.143	0.142	0.161	0.116	0.134	0.144																																																																																				
882	2.122	2.240	1.972	2.195	2.234	2.201	0.142	0.142	0.160	0.116	0.134	0.144																																																																																				
883	2.117	2.243	1.975	2.198	2.237	2.204	0.141	0.141	0.159	0.116	0.133	0.144																																																																																				
884	2.111	2.247	1.978	2.201	2.240	2.207	0.141	0.140	0.158	0.116	0.133	0.143																																																																																				
885	2.099	2.249	1.981	2.204	2.242	2.209	0.139	0.139	0.157	0.116	0.132	0.142																																																																																				
886	2.080	2.249	1.984	2.208	2.245	2.212	0.138	0.137	0.155	0.114	0.131	0.141																																																																																				
887	2.064	2.252	1.985	2.209	2.245	2.212	0.136	0.136	0.153	0.114	0.131	0.140																																																																																				
888	2.049	2.251	1.986	2.211	2.248	2.213	0.135	0.134	0.152	0.113	0.130	0.140																																																																																				
889	2.035	2.252	1.988	2.212	2.248	2.213	0.134	0.133	0.150	0.112	0.130	0.139																																																																																				
890	2.019	2.250	1.987	2.212	2.249	2.212	0.132	0.132	0.149	0.112	0.129	0.138																																																																																				
891	2.003	2.251	1.988	2.213	2.248	2.213	0.132	0.131	0.148	0.111	0.129	0.138																																																																																				
892	1.983	2.251	1.987	2.212	2.247	2.210	0.130	0.130	0.146	0.111	0.128	0.137																																																																																				
893	1.966	2.248	1.986	2.211	2.246	2.208	0.129	0.129	0.145	0.110	0.127	0.136																																																																																				
894	1.952	2.248	1.985	2.212	2.244	2.207	0.128	0.128	0.143	0.109	0.127	0.136																																																																																				
895	1.941	2.247	1.986	2.211	2.244	2.206	0.127	0.127	0.143	0.109	0.126	0.135																																																																																				
896	1.932	2.246	1.985	2.210	2.244	2.205	0.127	0.126	0.142	0.109	0.126	0.135																																																																																				
897	1.920	2.245	1.984	2.208	2.240	2.204	0.127	0.126	0.142	0.109	0.126	0.135																																																																																				
898	1.905	2.242	1.982	2.207	2.238	2.200	0.126	0.125	0.141	0.109	0.125	0.135																																																																																				
899	1.885	2.237	1.979	2.201	2.233	2.194	0.125	0.124	0.140	0.108	0.125	0.134																																																																																				
900	1.865	2.232	1.974	2.196	2.228	2.188	0.124	0.123	0.139	0.108	0.124	0.133																																																																																				
901	1.841	2.224	1.968	2.191	2.222	2.182	0.123	0.122	0.137	0.107	0.124	0.133																																																																																				
902	1.819	2.219	1.964	2.185	2.215	2.172	0.122	0.121	0.136	0.107	0.124	0.132																																																																																				
903	1.801	2.212	1.960	2.180	2.209	2.168	0.121	0.121	0.136	0.106	0.123	0.132																																																																																				
904	1.790	2.210	1.957	2.178	2.205	2.164	0.121	0.120	0.135	0.106	0.123	0.131																																																																																				
905	1.780	2.208	1.955	2.175	2.202	2.162	0.121	0.120	0.135	0.106	0.122	0.131																																																																																				
906	1.770	2.205	1.953	2.173	2.199	2.158	0.121	0.120	0.135	0.106	0.122	0.131																																																																																				
907	1.756	2.200	1.949	2.168	2.194	2.152	0.121	0.119	0.134	0.106	0.122	0.131																																																																																				
908	1.731	2.189	1.940	2.158	2.183	2.140	0.120	0.118	0.133	0.106	0.122	0.131																																																																																				
909	1.709	2.182	1.933	2.148	2.173	2.132	0.119	0.118	0.133	0.106	0.121	0.130																																																																																				
910	1.688	2.171	1.925	2.140	2.165	2.120	0.119	0.117	0.132	0.105	0.121	0.130																																																																																				
911	1.669	2.161	1.918	2.131	2.155	2.113	0.118	0.117	0.131	0.105	0.121	0.130																																																																																				
912	1.645	2.152	1.908	2.121	2.144	2.099	0.118	0.117	0.131	0.105	0.121	0.130																																																																																				
913	1.621	2.140	1.898	2.110	2.131	2.087	0.118	0.116	0.130	0.105	0.122	0.130																																																																																				
914	1.597	2.129	1.888	2.098	2.119	2.074	0.117	0.116	0.130	0.105	0.121	0.129																																																																																				
915	1.584	2.123	1.883	2.092	2.113	2.067	0.117	0.116	0.130	0.105	0.121	0.129																																																																																				
916	1.575	2.119	1.880	2.088	2.107	2.063	0.117	0.116	0.130	0.105	0.120	0.129																																																																																				
917	1.567	2.116	1.877	2.084	2.103	2.058	0.117	0.116	0.130	0.105	0.121	0.129																																																																																				
918	1.557	2.111	1.873	2.079	2.098	2.053	0.117	0.116	0.130	0.106	0.121	0.130																																																																																				
919	1.540	2.102	1.865	2.070	2.087	2.043	0.117	0.116	0.130	0.106	0.121	0.130																																																																																				
920	1.519	2.090	1.854	2.058	2.075	2.029	0.118	0.116	0.130	0.106	0.121	0.130																																																																																				
921	1.496	2.075	1.843	2.046	2.061	2.014	0.118	0.116	0.130	0.107	0.122	0.131																																																																																				
922	1.476	2.064	1.832	2.032	2.048	2.001	0.118	0.116	0.131	0.107	0.122	0.131																																																																																				
923	1.456	2.053	1.822	2.021	2.036	1.987	0.119	0.117	0.131	0.108	0.123	0.132																																																																																				
924	1.439	2.041	1.813	2.009	2.023	1.976	0.119	0.117	0.132	0.108	0.124	0.132																																																																																				
925	1.420	2.029	1.802	1.997	2.011	1.963	0.120	0.118	0.132	0.109	0.124	0.133																																																																																				
926	1.402	2.018	1.792	1.986	1.998	1.950	0.120	0.118	0.133	0.110	0.125	0.134																																																																																				
927	1.384	2.006	1.782	1.973	1.986	1.937	0.121	0.119	0.133	0.111	0.126	0.135																																																																																				
928	1.365	1.994	1.770	1.961	1.971	1.923	0.122	0.120	0.135	0.112	0.128	0.136																																																																																				
929	1.349	1.983	1.761	1.949	1.961	1.911	0.123	0.121	0.135	0.113	0.129	0.137																																																																																				
930	1.333	1.971	1.751	1.938	1.948	1.898	0.124	0.122	0.136	0.114	0.130	0.139																																																																																				
931	1.317	1.959	1.741	1.925	1.936	1.885	0.125	0.123	0.138	0.115	0.131	0.140																																																																																				
932	1.300	1.949	1.731	1.914	1.923	1.872	0.126	0.124	0.139	0.117	0.132	0.141																																																																																				
933	1.281	1.935	1.718	1.900	1.907	1.856	0.127	0.125	0.141	0.118	0.134	0.143																																																																																				
934	1.264	1.922	1.707	1.886	1.895	1.843	0.129	0.127	0.142	0.119	0.135	0.144																																																																																				
935	1.246	1.909	1.694	1.872	1.880	1.828	0.130	0.128	0.143	0.120	0.137	0.146																																																																																				
936	1.231	1.897	1.684	1.861	1.867	1.816	0.131	0.129	0.145	0.122	0.139	0.148																																																																																				
937	1.217	1.886	1.674	1.849	1.855	1.803	0.133	0.131	0.146	0.123	0.140	0.149																																																																																				
938	1.206	1.877	1.667	1.839	1.845	1.793	0.134	0.132	0.148	0.125	0.142	0.151																																																																																				
939	1.193	1.868	1.658	1.830	1.834	1.782	0.135	0.134	0.150	0.127	0.143	0.153																																																																																				
940	1.180	1.856	1.648	1.819	1.823	1.769	0.137	0.135	0.151	0.128	0.145	0.154																																																																																				
941	1.166	1.845	1.637	1.806	1.809	1.756	0.139	0.137	0.153	0.130	0.147	0.157																																																																																				
942	1.149	1.831	1.625	1.791	1.794	1.741	0.141	0.139	0.156	0.133	0.150	0.160																																																																																				
943	1.136	1.819	1.614	1.779	1.781	1.728	0.144	0.141	0.159	0.135	0.152	0.163																																																																																				
944	1.122	1.807	1.603	1.767	1.768	1.714	0.146	0.144	0.161	0.137	0.155	0.165																																																																																				
945	1.110	1.797	1.594	1.756	1.756	1.702	0.148	0.146	0.164	0.140	0.158	0.168																																																																																				
946	1.097	1.785	1.583	1.743	1.744	1.689	0.152	0.149	0.167	0.143	0.161	0.172																																																																																				
947	1.085	1.773	1.573	1.732	1.732	1.677	0.154	0.152	0.171	0.146	0.165	0.175																																																																																				
948	1.072	1.762	1.562	1.719	1.718	1.663	0.158	0.156	0.175	0.150	0.169	0.179																																																																																				
949	1.062	1.752	1.553	1.708	1.707	1.652	0.162	0.160	0.179	0.154	0.173	0.184																																																																																				
950	1.051	1.742	1.545	1.698	1.697	1.642	0.166	0.163	0.183	0.158	0.177	0.189																																																																																				
951	1.044	1.735	1.538	1.690	1.688	1.633	0.170	0.167	0.188	0.161	0.181	0.193																																																																																				
952	1.036	1.728	1.531	1.681	1.679	1.625	0.173	0.171	0.191	0.165	0.185	0.197																																																																																				
953	1.027	1.719	1.523	1.673	1.669	1.614	0.177	0.175	0.197	0.170	0.189	0.202																																																																																				
954	1.017	1.708	1.513	1.661	1.658	1.603	0.182	0.180	0.202	0.174	0.195	0.208																																																																																				
955	1.007	1.698	1.504	1.650	1.647	1.590	0.187	0.184	0.207	0.179	0.200	0.213																																																																																				
956	0.997	1.687	1.494	1.639	1.635	1.579	0.191	0.188	0.211	0.183	0.205	0.218																																																																																				
957	0.987	1.676	1.484	1.627	1.622	1.566	0.195	0.192	0.216	0.187	0.209	0.222																																																																																				
958	0.975	1.663	1.472	1.613	1.608	1.553	0.198	0.196	0.220	0.191	0.213	0.226																																																																																				
959	0.965	1.651	1.462	1.601	1.596	1.540	0.201	0.198	0.222	0.193	0.215	0.229																																																																																				
960	0.954	1.640	1.451	1.589	1.584	1.526	0.203	0.200	0.225	0.195	0.217	0.231																																																																																				
961	0.943	1.626	1.439	1.575	1.569	1.512	0.205	0.202	0.227	0.197	0.220	0.234																																																																																				
962	0.931	1.612	1.426	1.560	1.555	1.498	0.206	0.203	0.228	0.198	0.221	0.235																																																																																				
963	0.920	1.599	1.415	1.548	1.541	1.485	0.207	0.204	0.229	0.199	0.222	0.236																																																																																				
964	0.908	1.585	1.403	1.533	1.525	1.469	0.208	0.205	0.230	0.200	0.223	0.237																																																																																				
965	0.896	1.570	1.389	1.518	1.511	1.453	0.208	0.205	0.231	0.201	0.224	0.238																																																																																				
966	0.883	1.554	1.375	1.502	1.494	1.438	0.209	0.206	0.231	0.201	0.224	0.238																																																																																				
967	0.873	1.541	1.362	1.488	1.480	1.423	0.209	0.206	0.232	0.202	0.225	0.239																																																																																				
968	0.862	1.527	1.350	1.474	1.466	1.409	0.209	0.206	0.232	0.202	0.225	0.239																																																																																				
969	0.851	1.514	1.339	1.460	1.452	1.396	0.209	0.206	0.232	0.202	0.225	0.239																																																																																				
970	0.841	1.500	1.327	1.447	1.437	1.382	0.209	0.206	0.232	0.202	0.225	0.239																																																																																				
971	0.830	1.486	1.314	1.432	1.423	1.367	0.209	0.206	0.232	0.202	0.225	0.239																																																																																				
972	0.820	1.472	1.301	1.419	1.409	1.353	0.209	0.206	0.232	0.202	0.225	0.239																																																																																				
973	0.809	1.458	1.288	1.403	1.393	1.337	0.209	0.207	0.232	0.202	0.225	0.239																																																																																				
974	0.796	1.440	1.273	1.385	1.375	1.320	0.209	0.206	0.231	0.202	0.225	0.239																																																																																				
975	0.782	1.422	1.256	1.367	1.356	1.301	0.209	0.206	0.231	0.201	0.225	0.238																																																																																				
976	0.768	1.401	1.238	1.346	1.336	1.280	0.208	0.205	0.230	0.201	0.224	0.237																																																																																				
977	0.756	1.387	1.224	1.331	1.321	1.265	0.207	0.204	0.229	0.200	0.223	0.236																																																																																				
978	0.748	1.376	1.214	1.321	1.310	1.255	0.206	0.204	0.229	0.199	0.222	0.235																																																																																				
979	0.743	1.369	1.208	1.313	1.302	1.247	0.207	0.204	0.228	0.199	0.222	0.235																																																																																				
980	0.740	1.363	1.204	1.307	1.295	1.241	0.206	0.203	0.229	0.199	0.221	0.235																																																																																				
981	0.735	1.355	1.197	1.299	1.287	1.233	0.206	0.203	0.229	0.199	0.221	0.235																																																																																				
982	0.728	1.345	1.188	1.289	1.276	1.223	0.206	0.203	0.228	0.199	0.220	0.234																																																																																				
983	0.716	1.327	1.172	1.271	1.258	1.205	0.205	0.201	0.226	0.198	0.219	0.233																																																																																				
984	0.700	1.304	1.151	1.248	1.236	1.183	0.203	0.200	0.224	0.196	0.217	0.231																																																																																				
985	0.686	1.284	1.133	1.228	1.216	1.163	0.201	0.198	0.222	0.194	0.216	0.229																																																																																				
986	0.674	1.267	1.118	1.210	1.198	1.145	0.200	0.197	0.221	0.193	0.214	0.227																																																																																				
987	0.662	1.249	1.101	1.193	1.180	1.128	0.198	0.195	0.219	0.191	0.213	0.225																																																																																				
988	0.648	1.228	1.083	1.172	1.159	1.106	0.196	0.193	0.217	0.189	0.211	0.223																																																																																				
989	0.637	1.211	1.068	1.155	1.143	1.090	0.195	0.192	0.214	0.187	0.209	0.221																																																																																				
990	0.626	1.196	1.054	1.140	1.128	1.076	0.192	0.190	0.212	0.185	0.207	0.219																																																																																				
991	0.620	1.186	1.046	1.130	1.117	1.066	0.192	0.189	0.212	0.184	0.206	0.218																																																																																				
992	0.616	1.180	1.040	1.124	1.111	1.060	0.191	0.188	0.211	0.184	0.204	0.217																																																																																				
993	0.613	1.175	1.036	1.118	1.105	1.054	0.190	0.187	0.210	0.184	0.203	0.216																																																																																				
994	0.609	1.168	1.030	1.111	1.097	1.047	0.190	0.187	0.210	0.183	0.203	0.216																																																																																				
995	0.603	1.158	1.021	1.101	1.088	1.038	0.189	0.186	0.209	0.183	0.202	0.215																																																																																				
996	0.594	1.143	1.007	1.086	1.072	1.022	0.187	0.184	0.207	0.181	0.200	0.212																																																																																				
997	0.581	1.123	0.989	1.067	1.052	1.003	0.185	0.182	0.204	0.178	0.198	0.210																																																																																				
998	0.569	1.105	0.973	1.049	1.035	0.986	0.182	0.180	0.202	0.176	0.195	0.207																																																																																				
999	0.559	1.089	0.959	1.033	1.019	0.970	0.180	0.178	0.199	0.174	0.193	0.205																																																																																				

结果
	1	2	3	4	5	6	7	8	9	10	11	12
A	2.240	2.252	1.988	2.213	2.249	2.213	1.537	1.534	1.739	1.487	1.619	1.712	Mean Max OD [Spectrum]
B	?????	?????	?????	?????	?????	?????	?????	?????	?????	?????	?????	?????	Mean Max OD [Spectrum]
C	?????	?????	?????	?????	?????	?????	?????	?????	?????	?????	?????	?????	Mean Max OD [Spectrum]
D	?????	?????	?????	?????	?????	?????	?????	?????	?????	?????	?????	?????	Mean Max OD [Spectrum]
E	?????	?????	?????	?????	?????	?????	?????	?????	?????	?????	?????	?????	Mean Max OD [Spectrum]
F	?????	?????	?????	?????	?????	?????	?????	?????	?????	?????	?????	?????	Mean Max OD [Spectrum]
G	?????	?????	?????	?????	?????	?????	?????	?????	?????	?????	?????	?????	Mean Max OD [Spectrum]
H	?????	?????	?????	?????	?????	?????	?????	?????	?????	?????	?????	?????	Mean Max OD [Spectrum]

