

软件版本	3.11.19



实验文件路径:	
方案文件路径:	



板编号	板 1
日期	2023/3/29
时间	9:31:52
检测仪类型:	Epoch 2
检测仪序列号:	2205170B
检测类型	检测仪

程序详细信息

板类型	96 WELL PLATE
完成后弹出板	
检测	吸收光 光谱
	A1..A12
	开始: 400 nm,  停止: 999 nm,  步骤: 1 nm
	检测前校准
	检测速度: 正常,  延迟: 100 msec,  测量值/数据点: 8

Spectrum

波长	A1	A2	A3	A4	A5	A6	A7	A8	A9	A10	A11	A12	B1	B2	B3	B4	B5	B6	B7	B8	B9	B10	B11	B12	C1	C2	C3	C4	C5	C6	C7	C8	C9	C10	C11	C12	D1	D2	D3	D4	D5	D6	D7	D8	D9	D10	D11	D12	E1	E2	E3	E4	E5	E6	E7	E8	E9	E10	E11	E12	F1	F2	F3	F4	F5	F6	F7	F8	F9	F10	F11	F12	G1	G2	G3	G4	G5	G6	G7	G8	G9	G10	G11	G12	H1	H2	H3	H4	H5	H6	H7	H8	H9	H10	H11	H12
400	0.550	0.566	0.529	0.610	0.666	0.549	0.555	0.586	0.601	0.491	0.640	0.635																																																																																				
401	0.549	0.565	0.528	0.609	0.664	0.548	0.554	0.584	0.600	0.490	0.638	0.633																																																																																				
402	0.547	0.563	0.526	0.607	0.662	0.546	0.553	0.583	0.598	0.489	0.637	0.631																																																																																				
403	0.546	0.562	0.525	0.605	0.660	0.545	0.551	0.581	0.596	0.488	0.635	0.630																																																																																				
404	0.544	0.560	0.524	0.604	0.659	0.543	0.550	0.580	0.595	0.486	0.633	0.628																																																																																				
405	0.543	0.559	0.523	0.602	0.657	0.542	0.549	0.578	0.594	0.485	0.632	0.627																																																																																				
406	0.543	0.558	0.522	0.601	0.656	0.541	0.547	0.577	0.592	0.484	0.630	0.625																																																																																				
407	0.541	0.557	0.520	0.599	0.654	0.540	0.546	0.576	0.591	0.483	0.629	0.624																																																																																				
408	0.540	0.555	0.519	0.598	0.652	0.538	0.545	0.574	0.589	0.482	0.627	0.622																																																																																				
409	0.539	0.554	0.518	0.597	0.651	0.537	0.544	0.573	0.588	0.481	0.626	0.621																																																																																				
410	0.537	0.553	0.517	0.595	0.649	0.536	0.542	0.571	0.587	0.479	0.624	0.619																																																																																				
411	0.536	0.552	0.516	0.594	0.648	0.534	0.541	0.570	0.585	0.478	0.623	0.618																																																																																				
412	0.535	0.550	0.515	0.592	0.646	0.533	0.540	0.569	0.584	0.477	0.622	0.617																																																																																				
413	0.534	0.549	0.514	0.591	0.645	0.532	0.538	0.567	0.582	0.476	0.620	0.615																																																																																				
414	0.533	0.548	0.512	0.589	0.643	0.530	0.537	0.566	0.581	0.475	0.619	0.613																																																																																				
415	0.531	0.546	0.511	0.588	0.642	0.529	0.536	0.564	0.580	0.474	0.617	0.612																																																																																				
416	0.530	0.545	0.510	0.586	0.640	0.528	0.535	0.563	0.579	0.473	0.616	0.611																																																																																				
417	0.529	0.544	0.509	0.585	0.639	0.527	0.534	0.562	0.577	0.471	0.614	0.609																																																																																				
418	0.528	0.543	0.508	0.584	0.637	0.525	0.532	0.560	0.576	0.470	0.613	0.608																																																																																				
419	0.527	0.542	0.507	0.582	0.636	0.524	0.531	0.559	0.575	0.469	0.612	0.606																																																																																				
420	0.526	0.541	0.506	0.581	0.635	0.523	0.530	0.558	0.573	0.468	0.610	0.605																																																																																				
421	0.525	0.540	0.505	0.580	0.633	0.522	0.529	0.557	0.572	0.467	0.609	0.604																																																																																				
422	0.524	0.539	0.504	0.579	0.632	0.521	0.528	0.556	0.571	0.466	0.608	0.603																																																																																				
423	0.523	0.538	0.503	0.577	0.631	0.520	0.527	0.555	0.570	0.466	0.607	0.602																																																																																				
424	0.522	0.537	0.502	0.576	0.630	0.519	0.526	0.553	0.569	0.465	0.606	0.601																																																																																				
425	0.521	0.536	0.501	0.575	0.628	0.518	0.525	0.552	0.568	0.464	0.604	0.600																																																																																				
426	0.520	0.535	0.500	0.574	0.627	0.517	0.524	0.551	0.567	0.463	0.603	0.598																																																																																				
427	0.520	0.534	0.500	0.573	0.626	0.516	0.523	0.550	0.566	0.462	0.602	0.597																																																																																				
428	0.519	0.533	0.499	0.572	0.625	0.515	0.522	0.549	0.565	0.461	0.601	0.596																																																																																				
429	0.518	0.532	0.498	0.570	0.624	0.514	0.521	0.548	0.563	0.460	0.600	0.595																																																																																				
430	0.516	0.531	0.497	0.569	0.622	0.513	0.520	0.547	0.562	0.459	0.598	0.594																																																																																				
431	0.516	0.530	0.496	0.568	0.621	0.512	0.519	0.546	0.561	0.458	0.597	0.593																																																																																				
432	0.514	0.529	0.495	0.567	0.620	0.511	0.518	0.544	0.560	0.457	0.596	0.592																																																																																				
433	0.513	0.528	0.494	0.566	0.619	0.510	0.517	0.543	0.559	0.456	0.595	0.590																																																																																				
434	0.513	0.527	0.493	0.565	0.618	0.509	0.517	0.542	0.558	0.456	0.594	0.589																																																																																				
435	0.512	0.527	0.492	0.564	0.617	0.508	0.515	0.541	0.557	0.455	0.593	0.588																																																																																				
436	0.511	0.526	0.491	0.563	0.616	0.507	0.515	0.540	0.556	0.454	0.592	0.587																																																																																				
437	0.510	0.525	0.490	0.561	0.615	0.506	0.514	0.539	0.554	0.453	0.591	0.586																																																																																				
438	0.509	0.524	0.489	0.560	0.613	0.505	0.513	0.538	0.553	0.452	0.590	0.585																																																																																				
439	0.508	0.523	0.488	0.559	0.612	0.504	0.512	0.537	0.552	0.451	0.588	0.584																																																																																				
440	0.508	0.522	0.487	0.558	0.611	0.503	0.511	0.536	0.551	0.451	0.587	0.583																																																																																				
441	0.507	0.522	0.487	0.557	0.610	0.502	0.510	0.535	0.551	0.450	0.587	0.582																																																																																				
442	0.507	0.521	0.486	0.556	0.609	0.501	0.509	0.534	0.550	0.449	0.586	0.581																																																																																				
443	0.506	0.520	0.485	0.556	0.608	0.501	0.508	0.534	0.549	0.449	0.585	0.580																																																																																				
444	0.506	0.520	0.484	0.555	0.607	0.500	0.508	0.533	0.548	0.448	0.584	0.580																																																																																				
445	0.504	0.519	0.484	0.554	0.606	0.499	0.507	0.532	0.547	0.447	0.583	0.578																																																																																				
446	0.504	0.518	0.483	0.553	0.605	0.498	0.506	0.531	0.546	0.446	0.582	0.578																																																																																				
447	0.503	0.518	0.482	0.552	0.604	0.497	0.505	0.530	0.545	0.446	0.581	0.577																																																																																				
448	0.503	0.517	0.481	0.551	0.603	0.497	0.505	0.529	0.545	0.445	0.580	0.576																																																																																				
449	0.503	0.517	0.481	0.550	0.602	0.496	0.504	0.528	0.544	0.444	0.579	0.575																																																																																				
450	0.502	0.516	0.480	0.549	0.601	0.495	0.503	0.528	0.543	0.444	0.579	0.575																																																																																				
451	0.502	0.516	0.479	0.548	0.600	0.494	0.502	0.527	0.542	0.443	0.578	0.574																																																																																				
452	0.501	0.515	0.479	0.548	0.600	0.494	0.502	0.526	0.541	0.443	0.577	0.573																																																																																				
453	0.501	0.515	0.478	0.547	0.599	0.493	0.501	0.525	0.541	0.442	0.576	0.573																																																																																				
454	0.501	0.514	0.478	0.546	0.598	0.492	0.501	0.525	0.540	0.441	0.575	0.572																																																																																				
455	0.500	0.514	0.477	0.545	0.597	0.492	0.500	0.524	0.539	0.441	0.575	0.571																																																																																				
456	0.500	0.514	0.477	0.545	0.596	0.491	0.499	0.523	0.539	0.440	0.574	0.571																																																																																				
457	0.499	0.513	0.476	0.544	0.596	0.491	0.499	0.523	0.538	0.440	0.573	0.570																																																																																				
458	0.499	0.513	0.476	0.544	0.596	0.490	0.498	0.522	0.537	0.439	0.573	0.570																																																																																				
459	0.499	0.513	0.475	0.543	0.595	0.490	0.498	0.521	0.537	0.439	0.572	0.569																																																																																				
460	0.499	0.513	0.475	0.543	0.595	0.490	0.498	0.521	0.537	0.439	0.572	0.569																																																																																				
461	0.500	0.513	0.475	0.542	0.594	0.489	0.497	0.521	0.536	0.439	0.572	0.569																																																																																				
462	0.500	0.513	0.475	0.542	0.593	0.489	0.497	0.521	0.536	0.438	0.571	0.569																																																																																				
463	0.500	0.513	0.474	0.542	0.593	0.489	0.497	0.520	0.536	0.438	0.571	0.569																																																																																				
464	0.499	0.513	0.474	0.542	0.593	0.488	0.496	0.520	0.535	0.438	0.571	0.568																																																																																				
465	0.500	0.514	0.474	0.541	0.593	0.488	0.496	0.520	0.535	0.438	0.571	0.568																																																																																				
466	0.500	0.514	0.474	0.541	0.593	0.488	0.496	0.520	0.535	0.438	0.571	0.568																																																																																				
467	0.500	0.514	0.474	0.541	0.593	0.488	0.496	0.520	0.535	0.438	0.571	0.569																																																																																				
468	0.501	0.515	0.474	0.541	0.593	0.488	0.496	0.520	0.535	0.438	0.571	0.569																																																																																				
469	0.501	0.516	0.474	0.542	0.593	0.489	0.496	0.520	0.536	0.438	0.571	0.569																																																																																				
470	0.502	0.516	0.474	0.542	0.593	0.489	0.497	0.520	0.536	0.438	0.571	0.570																																																																																				
471	0.503	0.517	0.475	0.542	0.594	0.489	0.497	0.520	0.536	0.438	0.572	0.570																																																																																				
472	0.503	0.518	0.475	0.543	0.594	0.490	0.497	0.521	0.537	0.439	0.572	0.571																																																																																				
473	0.505	0.519	0.475	0.543	0.595	0.490	0.498	0.521	0.537	0.439	0.573	0.571																																																																																				
474	0.506	0.520	0.476	0.544	0.596	0.491	0.498	0.522	0.538	0.440	0.574	0.572																																																																																				
475	0.507	0.521	0.477	0.545	0.597	0.492	0.499	0.523	0.539	0.440	0.575	0.573																																																																																				
476	0.508	0.523	0.478	0.546	0.598	0.492	0.500	0.524	0.540	0.441	0.576	0.575																																																																																				
477	0.510	0.525	0.479	0.547	0.599	0.494	0.501	0.525	0.541	0.442	0.577	0.576																																																																																				
478	0.511	0.527	0.480	0.548	0.600	0.495	0.502	0.526	0.542	0.443	0.578	0.578																																																																																				
479	0.513	0.529	0.481	0.550	0.602	0.496	0.503	0.528	0.544	0.445	0.580	0.580																																																																																				
480	0.515	0.531	0.483	0.552	0.604	0.498	0.505	0.529	0.546	0.446	0.582	0.582																																																																																				
481	0.517	0.534	0.484	0.554	0.607	0.500	0.507	0.532	0.548	0.448	0.584	0.584																																																																																				
482	0.520	0.538	0.487	0.556	0.610	0.502	0.509	0.534	0.550	0.450	0.587	0.587																																																																																				
483	0.523	0.540	0.488	0.559	0.612	0.504	0.511	0.536	0.552	0.451	0.589	0.590																																																																																				
484	0.526	0.543	0.490	0.561	0.614	0.506	0.512	0.538	0.554	0.453	0.591	0.592																																																																																				
485	0.529	0.546	0.492	0.563	0.616	0.508	0.514	0.540	0.556	0.455	0.593	0.594																																																																																				
486	0.533	0.549	0.495	0.566	0.619	0.510	0.516	0.543	0.559	0.457	0.596	0.597																																																																																				
487	0.537	0.554	0.498	0.570	0.623	0.514	0.519	0.546	0.563	0.460	0.600	0.601																																																																																				
488	0.541	0.558	0.501	0.573	0.626	0.517	0.522	0.549	0.566	0.462	0.603	0.605																																																																																				
489	0.545	0.562	0.503	0.576	0.630	0.519	0.525	0.552	0.569	0.465	0.607	0.609																																																																																				
490	0.550	0.567	0.507	0.580	0.634	0.523	0.528	0.556	0.573	0.468	0.611	0.613																																																																																				
491	0.555	0.574	0.511	0.585	0.640	0.528	0.533	0.561	0.577	0.472	0.616	0.618																																																																																				
492	0.559	0.579	0.514	0.589	0.644	0.531	0.536	0.564	0.581	0.474	0.620	0.622																																																																																				
493	0.565	0.584	0.518	0.593	0.647	0.535	0.539	0.568	0.585	0.477	0.624	0.627																																																																																				
494	0.571	0.590	0.522	0.598	0.652	0.539	0.543	0.573	0.589	0.481	0.628	0.632																																																																																				
495	0.577	0.597	0.527	0.604	0.659	0.544	0.548	0.578	0.595	0.485	0.634	0.638																																																																																				
496	0.584	0.606	0.532	0.610	0.666	0.549	0.553	0.583	0.601	0.490	0.640	0.645																																																																																				
497	0.592	0.614	0.537	0.616	0.672	0.554	0.558	0.589	0.606	0.494	0.646	0.651																																																																																				
498	0.598	0.620	0.541	0.620	0.677	0.558	0.561	0.593	0.610	0.498	0.650	0.655																																																																																				
499	0.604	0.626	0.545	0.625	0.681	0.562	0.565	0.597	0.614	0.501	0.654	0.660																																																																																				
500	0.610	0.633	0.549	0.630	0.686	0.567	0.569	0.601	0.619	0.505	0.659	0.665																																																																																				
501	0.617	0.641	0.554	0.635	0.692	0.571	0.573	0.606	0.623	0.508	0.664	0.671																																																																																				
502	0.624	0.649	0.558	0.640	0.697	0.576	0.577	0.611	0.628	0.512	0.669	0.676																																																																																				
503	0.630	0.656	0.562	0.645	0.702	0.580	0.581	0.615	0.632	0.515	0.673	0.681																																																																																				
504	0.638	0.664	0.567	0.650	0.708	0.584	0.585	0.619	0.637	0.519	0.678	0.686																																																																																				
505	0.645	0.671	0.570	0.654	0.712	0.587	0.588	0.623	0.640	0.522	0.682	0.691																																																																																				
506	0.652	0.679	0.574	0.658	0.716	0.591	0.592	0.626	0.644	0.525	0.685	0.695																																																																																				
507	0.657	0.686	0.577	0.662	0.720	0.594	0.594	0.629	0.647	0.527	0.689	0.699																																																																																				
508	0.663	0.692	0.579	0.665	0.723	0.596	0.597	0.632	0.649	0.530	0.691	0.703																																																																																				
509	0.669	0.699	0.582	0.668	0.726	0.599	0.599	0.634	0.652	0.531	0.694	0.706																																																																																				
510	0.675	0.705	0.584	0.670	0.728	0.601	0.601	0.636	0.654	0.533	0.696	0.709																																																																																				
511	0.679	0.710	0.586	0.672	0.730	0.602	0.602	0.637	0.655	0.534	0.697	0.711																																																																																				
512	0.683	0.715	0.587	0.673	0.732	0.603	0.603	0.638	0.656	0.535	0.698	0.712																																																																																				
513	0.687	0.719	0.587	0.674	0.732	0.604	0.603	0.639	0.656	0.535	0.699	0.713																																																																																				
514	0.690	0.723	0.588	0.674	0.732	0.604	0.603	0.639	0.656	0.536	0.698	0.714																																																																																				
515	0.692	0.726	0.588	0.674	0.732	0.603	0.603	0.638	0.656	0.535	0.698	0.714																																																																																				
516	0.694	0.729	0.587	0.673	0.731	0.603	0.602	0.637	0.655	0.535	0.697	0.714																																																																																				
517	0.696	0.731	0.586	0.672	0.730	0.601	0.601	0.636	0.653	0.533	0.696	0.713																																																																																				
518	0.697	0.732	0.585	0.670	0.729	0.600	0.599	0.635	0.652	0.533	0.694	0.713																																																																																				
519	0.698	0.733	0.584	0.669	0.727	0.599	0.598	0.633	0.650	0.531	0.692	0.711																																																																																				
520	0.698	0.733	0.582	0.667	0.724	0.597	0.596	0.631	0.648	0.530	0.690	0.710																																																																																				
521	0.697	0.733	0.580	0.664	0.722	0.595	0.594	0.628	0.645	0.528	0.688	0.708																																																																																				
522	0.696	0.732	0.577	0.661	0.718	0.592	0.591	0.625	0.642	0.525	0.684	0.705																																																																																				
523	0.694	0.731	0.574	0.658	0.715	0.589	0.588	0.622	0.639	0.523	0.681	0.703																																																																																				
524	0.692	0.729	0.571	0.654	0.711	0.585	0.585	0.618	0.635	0.520	0.677	0.699																																																																																				
525	0.690	0.727	0.567	0.650	0.706	0.582	0.582	0.614	0.631	0.517	0.673	0.696																																																																																				
526	0.687	0.725	0.564	0.646	0.702	0.578	0.578	0.610	0.627	0.513	0.668	0.692																																																																																				
527	0.684	0.722	0.560	0.641	0.697	0.574	0.574	0.606	0.622	0.510	0.664	0.688																																																																																				
528	0.682	0.719	0.556	0.637	0.693	0.571	0.571	0.603	0.619	0.507	0.660	0.684																																																																																				
529	0.680	0.716	0.553	0.633	0.689	0.567	0.567	0.599	0.615	0.504	0.656	0.681																																																																																				
530	0.678	0.713	0.550	0.629	0.684	0.564	0.564	0.596	0.611	0.501	0.652	0.677																																																																																				
531	0.674	0.710	0.546	0.624	0.679	0.559	0.560	0.591	0.606	0.498	0.647	0.673																																																																																				
532	0.669	0.705	0.540	0.618	0.673	0.554	0.555	0.585	0.601	0.493	0.641	0.667																																																																																				
533	0.664	0.701	0.536	0.613	0.667	0.549	0.550	0.580	0.595	0.489	0.636	0.662																																																																																				
534	0.661	0.697	0.531	0.608	0.661	0.544	0.546	0.575	0.590	0.485	0.631	0.657																																																																																				
535	0.657	0.692	0.526	0.602	0.655	0.539	0.541	0.570	0.585	0.481	0.625	0.651																																																																																				
536	0.652	0.688	0.521	0.596	0.649	0.534	0.536	0.565	0.579	0.476	0.619	0.645																																																																																				
537	0.648	0.683	0.516	0.590	0.642	0.529	0.531	0.559	0.573	0.472	0.613	0.639																																																																																				
538	0.643	0.678	0.511	0.584	0.636	0.523	0.526	0.552	0.567	0.467	0.607	0.633																																																																																				
539	0.638	0.674	0.505	0.577	0.629	0.518	0.520	0.547	0.561	0.462	0.601	0.627																																																																																				
540	0.633	0.669	0.499	0.570	0.622	0.512	0.515	0.541	0.555	0.457	0.594	0.620																																																																																				
541	0.630	0.665	0.494	0.564	0.615	0.506	0.510	0.535	0.549	0.453	0.588	0.614																																																																																				
542	0.627	0.661	0.490	0.559	0.609	0.501	0.505	0.530	0.544	0.448	0.582	0.608																																																																																				
543	0.624	0.657	0.485	0.553	0.604	0.496	0.500	0.525	0.539	0.444	0.577	0.603																																																																																				
544	0.620	0.653	0.480	0.546	0.596	0.490	0.495	0.518	0.532	0.439	0.570	0.596																																																																																				
545	0.615	0.649	0.473	0.539	0.588	0.484	0.488	0.512	0.525	0.433	0.563	0.588																																																																																				
546	0.611	0.645	0.468	0.532	0.581	0.478	0.482	0.505	0.519	0.428	0.556	0.581																																																																																				
547	0.608	0.641	0.462	0.525	0.574	0.472	0.477	0.499	0.512	0.423	0.549	0.574																																																																																				
548	0.605	0.638	0.457	0.519	0.567	0.466	0.471	0.493	0.506	0.418	0.543	0.567																																																																																				
549	0.602	0.635	0.451	0.512	0.560	0.460	0.466	0.487	0.500	0.413	0.536	0.560																																																																																				
550	0.598	0.631	0.445	0.505	0.552	0.454	0.460	0.480	0.493	0.407	0.529	0.552																																																																																				
551	0.596	0.628	0.440	0.499	0.545	0.448	0.454	0.474	0.487	0.403	0.522	0.544																																																																																				
552	0.593	0.625	0.434	0.492	0.537	0.442	0.448	0.467	0.480	0.397	0.515	0.536																																																																																				
553	0.590	0.623	0.428	0.485	0.530	0.436	0.443	0.461	0.473	0.392	0.508	0.529																																																																																				
554	0.589	0.621	0.423	0.478	0.523	0.430	0.437	0.454	0.467	0.386	0.501	0.521																																																																																				
555	0.587	0.619	0.418	0.472	0.517	0.424	0.432	0.448	0.461	0.381	0.494	0.514																																																																																				
556	0.585	0.617	0.412	0.465	0.509	0.418	0.425	0.441	0.454	0.376	0.487	0.506																																																																																				
557	0.583	0.615	0.407	0.458	0.502	0.412	0.420	0.435	0.448	0.370	0.480	0.498																																																																																				
558	0.582	0.614	0.401	0.451	0.494	0.406	0.414	0.428	0.441	0.364	0.473	0.490																																																																																				
559	0.581	0.613	0.396	0.445	0.487	0.399	0.408	0.422	0.434	0.359	0.466	0.482																																																																																				
560	0.580	0.612	0.390	0.438	0.479	0.393	0.402	0.415	0.427	0.353	0.458	0.474																																																																																				
561	0.580	0.612	0.386	0.432	0.473	0.388	0.397	0.409	0.421	0.348	0.452	0.467																																																																																				
562	0.580	0.612	0.381	0.426	0.467	0.382	0.392	0.403	0.415	0.344	0.446	0.459																																																																																				
563	0.580	0.612	0.377	0.421	0.462	0.378	0.388	0.399	0.410	0.340	0.440	0.454																																																																																				
564	0.580	0.613	0.372	0.416	0.455	0.373	0.383	0.393	0.404	0.335	0.434	0.447																																																																																				
565	0.581	0.614	0.367	0.409	0.449	0.367	0.377	0.387	0.398	0.330	0.427	0.439																																																																																				
566	0.582	0.615	0.363	0.404	0.443	0.362	0.372	0.382	0.393	0.325	0.421	0.432																																																																																				
567	0.584	0.616	0.359	0.399	0.437	0.357	0.368	0.376	0.387	0.321	0.415	0.426																																																																																				
568	0.585	0.618	0.356	0.394	0.432	0.353	0.363	0.371	0.382	0.317	0.410	0.419																																																																																				
569	0.587	0.620	0.352	0.389	0.426	0.348	0.359	0.366	0.377	0.312	0.404	0.413																																																																																				
570	0.589	0.622	0.348	0.384	0.421	0.344	0.355	0.361	0.372	0.308	0.399	0.406																																																																																				
571	0.592	0.625	0.344	0.379	0.415	0.339	0.350	0.356	0.366	0.303	0.393	0.400																																																																																				
572	0.595	0.628	0.340	0.374	0.410	0.334	0.346	0.351	0.362	0.299	0.387	0.393																																																																																				
573	0.598	0.631	0.337	0.370	0.405	0.330	0.342	0.347	0.357	0.295	0.382	0.388																																																																																				
574	0.601	0.635	0.334	0.366	0.401	0.327	0.338	0.343	0.353	0.292	0.378	0.382																																																																																				
575	0.605	0.639	0.331	0.362	0.396	0.322	0.334	0.338	0.348	0.288	0.372	0.376																																																																																				
576	0.609	0.643	0.328	0.358	0.392	0.319	0.331	0.334	0.344	0.285	0.368	0.371																																																																																				
577	0.613	0.647	0.326	0.355	0.388	0.316	0.328	0.330	0.340	0.281	0.364	0.366																																																																																				
578	0.618	0.652	0.323	0.351	0.384	0.312	0.324	0.326	0.336	0.278	0.359	0.361																																																																																				
579	0.623	0.657	0.320	0.347	0.379	0.308	0.320	0.322	0.332	0.274	0.355	0.355																																																																																				
580	0.628	0.663	0.317	0.344	0.376	0.305	0.317	0.318	0.328	0.271	0.350	0.350																																																																																				
581	0.633	0.668	0.315	0.340	0.372	0.301	0.314	0.315	0.324	0.268	0.346	0.345																																																																																				
582	0.638	0.674	0.312	0.337	0.368	0.298	0.311	0.311	0.320	0.265	0.342	0.341																																																																																				
583	0.644	0.680	0.310	0.334	0.364	0.295	0.308	0.307	0.317	0.262	0.338	0.336																																																																																				
584	0.651	0.688	0.308	0.331	0.361	0.292	0.305	0.304	0.313	0.259	0.334	0.332																																																																																				
585	0.658	0.694	0.306	0.328	0.357	0.289	0.302	0.300	0.310	0.256	0.330	0.327																																																																																				
586	0.664	0.702	0.304	0.325	0.354	0.286	0.299	0.297	0.306	0.253	0.326	0.322																																																																																				
587	0.672	0.709	0.302	0.322	0.351	0.283	0.296	0.294	0.303	0.250	0.323	0.318																																																																																				
588	0.679	0.717	0.300	0.320	0.349	0.281	0.294	0.291	0.300	0.248	0.320	0.315																																																																																				
589	0.686	0.724	0.299	0.318	0.346	0.279	0.292	0.289	0.298	0.245	0.317	0.311																																																																																				
590	0.694	0.732	0.297	0.315	0.343	0.276	0.289	0.286	0.295	0.243	0.314	0.307																																																																																				
591	0.702	0.740	0.296	0.313	0.341	0.274	0.288	0.283	0.292	0.241	0.310	0.303																																																																																				
592	0.708	0.747	0.295	0.311	0.339	0.273	0.286	0.281	0.290	0.239	0.308	0.301																																																																																				
593	0.716	0.754	0.294	0.310	0.337	0.271	0.284	0.279	0.288	0.237	0.305	0.297																																																																																				
594	0.724	0.763	0.293	0.308	0.334	0.269	0.282	0.277	0.285	0.235	0.303	0.294																																																																																				
595	0.733	0.772	0.292	0.306	0.332	0.267	0.280	0.275	0.283	0.233	0.300	0.291																																																																																				
596	0.741	0.780	0.291	0.305	0.331	0.265	0.278	0.273	0.281	0.231	0.298	0.288																																																																																				
597	0.749	0.787	0.291	0.303	0.329	0.264	0.277	0.271	0.279	0.230	0.296	0.286																																																																																				
598	0.757	0.795	0.290	0.302	0.327	0.262	0.275	0.269	0.278	0.228	0.294	0.283																																																																																				
599	0.766	0.804	0.290	0.301	0.326	0.261	0.274	0.268	0.276	0.227	0.291	0.281																																																																																				
600	0.774	0.813	0.289	0.300	0.324	0.259	0.273	0.266	0.274	0.225	0.289	0.278																																																																																				
601	0.784	0.822	0.289	0.299	0.323	0.258	0.271	0.264	0.272	0.223	0.287	0.275																																																																																				
602	0.793	0.832	0.289	0.298	0.322	0.257	0.270	0.262	0.270	0.222	0.285	0.273																																																																																				
603	0.801	0.839	0.289	0.297	0.321	0.256	0.269	0.261	0.269	0.221	0.283	0.271																																																																																				
604	0.810	0.847	0.289	0.297	0.320	0.255	0.268	0.260	0.268	0.219	0.282	0.269																																																																																				
605	0.818	0.855	0.289	0.296	0.319	0.254	0.267	0.259	0.266	0.218	0.280	0.267																																																																																				
606	0.826	0.862	0.290	0.296	0.318	0.253	0.266	0.258	0.265	0.217	0.279	0.265																																																																																				
607	0.833	0.870	0.290	0.296	0.318	0.253	0.265	0.257	0.264	0.216	0.278	0.263																																																																																				
608	0.843	0.878	0.291	0.296	0.317	0.252	0.265	0.256	0.263	0.215	0.276	0.262																																																																																				
609	0.850	0.886	0.291	0.296	0.317	0.251	0.264	0.255	0.262	0.214	0.275	0.260																																																																																				
610	0.857	0.892	0.292	0.296	0.317	0.251	0.263	0.254	0.261	0.214	0.274	0.258																																																																																				
611	0.865	0.898	0.293	0.296	0.316	0.251	0.263	0.253	0.261	0.213	0.273	0.257																																																																																				
612	0.872	0.905	0.294	0.296	0.316	0.250	0.262	0.253	0.260	0.212	0.272	0.256																																																																																				
613	0.880	0.912	0.295	0.296	0.316	0.250	0.262	0.252	0.259	0.211	0.271	0.254																																																																																				
614	0.887	0.919	0.296	0.297	0.316	0.250	0.262	0.252	0.259	0.211	0.270	0.253																																																																																				
615	0.894	0.925	0.297	0.298	0.316	0.249	0.262	0.251	0.258	0.210	0.269	0.252																																																																																				
616	0.901	0.931	0.299	0.298	0.317	0.249	0.261	0.251	0.258	0.209	0.268	0.251																																																																																				
617	0.907	0.936	0.300	0.299	0.317	0.249	0.261	0.250	0.257	0.209	0.268	0.249																																																																																				
618	0.913	0.941	0.302	0.300	0.318	0.249	0.261	0.250	0.257	0.208	0.267	0.248																																																																																				
619	0.919	0.946	0.304	0.301	0.318	0.250	0.261	0.250	0.256	0.208	0.266	0.247																																																																																				
620	0.925	0.950	0.306	0.302	0.319	0.250	0.261	0.250	0.256	0.208	0.266	0.247																																																																																				
621	0.930	0.954	0.308	0.303	0.320	0.250	0.262	0.250	0.256	0.208	0.265	0.246																																																																																				
622	0.935	0.958	0.310	0.305	0.321	0.251	0.261	0.250	0.256	0.207	0.265	0.245																																																																																				
623	0.939	0.961	0.313	0.306	0.322	0.251	0.262	0.250	0.256	0.207	0.264	0.244																																																																																				
624	0.943	0.963	0.315	0.308	0.323	0.252	0.262	0.250	0.256	0.207	0.264	0.244																																																																																				
625	0.946	0.965	0.318	0.310	0.324	0.253	0.262	0.250	0.256	0.207	0.264	0.243																																																																																				
626	0.950	0.967	0.321	0.312	0.326	0.253	0.263	0.250	0.256	0.207	0.264	0.243																																																																																				
627	0.952	0.968	0.324	0.314	0.327	0.254	0.264	0.251	0.257	0.207	0.264	0.242																																																																																				
628	0.954	0.969	0.327	0.316	0.329	0.255	0.264	0.251	0.257	0.207	0.264	0.242																																																																																				
629	0.956	0.969	0.330	0.318	0.330	0.256	0.265	0.252	0.257	0.207	0.264	0.242																																																																																				
630	0.957	0.969	0.334	0.321	0.332	0.257	0.266	0.252	0.258	0.207	0.264	0.241																																																																																				
631	0.958	0.969	0.337	0.323	0.334	0.258	0.267	0.253	0.258	0.207	0.264	0.241																																																																																				
632	0.958	0.968	0.341	0.326	0.336	0.259	0.268	0.254	0.259	0.208	0.264	0.241																																																																																				
633	0.958	0.966	0.345	0.328	0.338	0.261	0.269	0.255	0.260	0.208	0.265	0.241																																																																																				
634	0.957	0.964	0.349	0.331	0.341	0.262	0.270	0.256	0.260	0.208	0.265	0.241																																																																																				
635	0.956	0.962	0.353	0.335	0.343	0.264	0.271	0.257	0.261	0.209	0.266	0.241																																																																																				
636	0.955	0.960	0.357	0.338	0.346	0.265	0.272	0.258	0.262	0.209	0.266	0.241																																																																																				
637	0.953	0.957	0.362	0.341	0.348	0.267	0.273	0.259	0.263	0.210	0.267	0.241																																																																																				
638	0.951	0.953	0.367	0.345	0.352	0.269	0.275	0.260	0.264	0.210	0.267	0.241																																																																																				
639	0.948	0.949	0.372	0.349	0.355	0.271	0.276	0.261	0.265	0.211	0.268	0.242																																																																																				
640	0.945	0.945	0.378	0.353	0.358	0.273	0.278	0.263	0.267	0.212	0.269	0.242																																																																																				
641	0.941	0.940	0.383	0.357	0.361	0.275	0.280	0.264	0.268	0.212	0.269	0.242																																																																																				
642	0.938	0.935	0.389	0.362	0.365	0.277	0.281	0.266	0.269	0.213	0.270	0.243																																																																																				
643	0.933	0.929	0.395	0.366	0.369	0.279	0.283	0.267	0.271	0.214	0.271	0.243																																																																																				
644	0.929	0.924	0.401	0.371	0.373	0.282	0.285	0.269	0.272	0.215	0.272	0.244																																																																																				
645	0.924	0.918	0.408	0.376	0.377	0.284	0.287	0.271	0.274	0.216	0.274	0.244																																																																																				
646	0.919	0.912	0.415	0.382	0.381	0.287	0.290	0.273	0.276	0.217	0.275	0.245																																																																																				
647	0.913	0.905	0.422	0.387	0.386	0.290	0.292	0.275	0.278	0.218	0.276	0.246																																																																																				
648	0.908	0.898	0.429	0.393	0.391	0.293	0.294	0.277	0.280	0.220	0.277	0.247																																																																																				
649	0.902	0.891	0.437	0.399	0.396	0.296	0.297	0.280	0.282	0.221	0.279	0.248																																																																																				
650	0.895	0.884	0.445	0.405	0.401	0.299	0.300	0.282	0.284	0.222	0.280	0.249																																																																																				
651	0.889	0.876	0.453	0.412	0.406	0.303	0.303	0.284	0.286	0.224	0.282	0.250																																																																																				
652	0.883	0.870	0.461	0.418	0.411	0.306	0.305	0.286	0.288	0.225	0.283	0.251																																																																																				
653	0.876	0.862	0.469	0.425	0.417	0.310	0.308	0.289	0.290	0.226	0.285	0.252																																																																																				
654	0.869	0.854	0.478	0.432	0.423	0.314	0.311	0.292	0.293	0.228	0.287	0.253																																																																																				
655	0.862	0.846	0.487	0.439	0.429	0.318	0.315	0.295	0.296	0.230	0.289	0.255																																																																																				
656	0.855	0.838	0.496	0.447	0.436	0.322	0.318	0.298	0.299	0.232	0.291	0.256																																																																																				
657	0.847	0.829	0.507	0.455	0.443	0.327	0.322	0.302	0.302	0.234	0.293	0.258																																																																																				
658	0.839	0.821	0.516	0.464	0.450	0.331	0.326	0.305	0.305	0.235	0.295	0.259																																																																																				
659	0.831	0.812	0.527	0.472	0.457	0.336	0.329	0.308	0.308	0.237	0.298	0.261																																																																																				
660	0.824	0.804	0.536	0.480	0.464	0.340	0.333	0.312	0.311	0.239	0.300	0.262																																																																																				
661	0.815	0.795	0.548	0.490	0.472	0.345	0.338	0.316	0.315	0.242	0.303	0.264																																																																																				
662	0.807	0.786	0.559	0.499	0.480	0.351	0.342	0.320	0.318	0.244	0.305	0.266																																																																																				
663	0.799	0.778	0.569	0.509	0.488	0.356	0.346	0.324	0.322	0.246	0.308	0.268																																																																																				
664	0.790	0.769	0.581	0.518	0.496	0.361	0.351	0.328	0.326	0.248	0.311	0.270																																																																																				
665	0.782	0.760	0.593	0.529	0.505	0.367	0.355	0.332	0.329	0.251	0.314	0.272																																																																																				
666	0.774	0.751	0.604	0.538	0.514	0.373	0.360	0.337	0.333	0.254	0.317	0.274																																																																																				
667	0.765	0.741	0.617	0.550	0.524	0.379	0.366	0.342	0.338	0.257	0.320	0.277																																																																																				
668	0.755	0.732	0.630	0.562	0.534	0.386	0.371	0.347	0.343	0.260	0.324	0.279																																																																																				
669	0.747	0.722	0.643	0.574	0.545	0.393	0.377	0.352	0.348	0.263	0.327	0.282																																																																																				
670	0.738	0.713	0.656	0.586	0.555	0.400	0.383	0.357	0.352	0.266	0.331	0.285																																																																																				
671	0.729	0.704	0.670	0.598	0.566	0.407	0.389	0.363	0.357	0.269	0.335	0.287																																																																																				
672	0.720	0.695	0.683	0.610	0.577	0.414	0.395	0.368	0.363	0.272	0.339	0.290																																																																																				
673	0.711	0.685	0.698	0.623	0.588	0.422	0.401	0.374	0.368	0.276	0.343	0.293																																																																																				
674	0.701	0.676	0.712	0.637	0.601	0.431	0.408	0.381	0.374	0.280	0.347	0.297																																																																																				
675	0.692	0.667	0.727	0.650	0.612	0.439	0.415	0.387	0.380	0.284	0.352	0.300																																																																																				
676	0.683	0.657	0.742	0.665	0.626	0.448	0.422	0.394	0.386	0.288	0.357	0.303																																																																																				
677	0.673	0.648	0.757	0.679	0.638	0.456	0.430	0.401	0.393	0.292	0.362	0.307																																																																																				
678	0.665	0.639	0.771	0.693	0.651	0.465	0.437	0.408	0.399	0.296	0.366	0.311																																																																																				
679	0.655	0.629	0.787	0.709	0.665	0.474	0.446	0.415	0.406	0.301	0.372	0.315																																																																																				
680	0.646	0.620	0.803	0.724	0.679	0.484	0.454	0.423	0.413	0.305	0.377	0.319																																																																																				
681	0.637	0.611	0.819	0.740	0.694	0.494	0.462	0.431	0.420	0.310	0.383	0.323																																																																																				
682	0.628	0.602	0.835	0.756	0.709	0.504	0.471	0.440	0.428	0.315	0.389	0.328																																																																																				
683	0.620	0.593	0.850	0.772	0.723	0.514	0.479	0.448	0.435	0.320	0.394	0.332																																																																																				
684	0.611	0.585	0.865	0.788	0.738	0.525	0.489	0.456	0.443	0.325	0.401	0.337																																																																																				
685	0.601	0.576	0.882	0.806	0.755	0.537	0.499	0.466	0.452	0.331	0.407	0.342																																																																																				
686	0.592	0.566	0.900	0.824	0.772	0.549	0.509	0.476	0.462	0.337	0.415	0.347																																																																																				
687	0.582	0.557	0.918	0.843	0.790	0.562	0.520	0.486	0.471	0.343	0.422	0.353																																																																																				
688	0.573	0.548	0.935	0.861	0.807	0.574	0.531	0.496	0.481	0.350	0.430	0.359																																																																																				
689	0.565	0.540	0.952	0.880	0.825	0.587	0.541	0.507	0.490	0.356	0.437	0.364																																																																																				
690	0.556	0.532	0.968	0.897	0.842	0.599	0.552	0.517	0.500	0.362	0.445	0.370																																																																																				
691	0.548	0.524	0.984	0.915	0.859	0.611	0.563	0.527	0.510	0.369	0.453	0.376																																																																																				
692	0.540	0.516	1.000	0.934	0.877	0.625	0.574	0.538	0.520	0.376	0.461	0.383																																																																																				
693	0.531	0.507	1.018	0.954	0.897	0.639	0.587	0.551	0.531	0.383	0.470	0.389																																																																																				
694	0.523	0.499	1.034	0.973	0.916	0.652	0.599	0.562	0.542	0.391	0.478	0.396																																																																																				
695	0.515	0.491	1.051	0.992	0.935	0.667	0.611	0.574	0.553	0.398	0.487	0.403																																																																																				
696	0.507	0.483	1.068	1.013	0.955	0.682	0.624	0.587	0.566	0.407	0.497	0.411																																																																																				
697	0.498	0.475	1.086	1.035	0.977	0.698	0.639	0.601	0.579	0.416	0.508	0.419																																																																																				
698	0.491	0.468	1.101	1.053	0.995	0.712	0.651	0.613	0.590	0.423	0.517	0.426																																																																																				
699	0.484	0.461	1.117	1.072	1.015	0.726	0.664	0.626	0.603	0.432	0.527	0.434																																																																																				
700	0.478	0.455	1.131	1.091	1.033	0.740	0.676	0.639	0.614	0.440	0.537	0.442																																																																																				
701	0.471	0.448	1.146	1.110	1.054	0.756	0.690	0.652	0.627	0.449	0.548	0.450																																																																																				
702	0.464	0.441	1.162	1.131	1.075	0.772	0.705	0.667	0.641	0.459	0.559	0.460																																																																																				
703	0.456	0.433	1.179	1.153	1.098	0.790	0.720	0.683	0.656	0.469	0.572	0.470																																																																																				
704	0.450	0.427	1.194	1.172	1.118	0.806	0.735	0.697	0.670	0.478	0.583	0.479																																																																																				
705	0.444	0.420	1.209	1.192	1.139	0.823	0.749	0.712	0.685	0.488	0.595	0.488																																																																																				
706	0.438	0.413	1.224	1.212	1.160	0.839	0.764	0.727	0.699	0.498	0.608	0.498																																																																																				
707	0.431	0.407	1.238	1.232	1.181	0.857	0.780	0.743	0.715	0.509	0.621	0.509																																																																																				
708	0.426	0.401	1.252	1.252	1.202	0.874	0.795	0.759	0.730	0.520	0.633	0.519																																																																																				
709	0.419	0.395	1.267	1.272	1.225	0.892	0.811	0.775	0.746	0.531	0.647	0.531																																																																																				
710	0.413	0.389	1.279	1.291	1.245	0.908	0.827	0.791	0.761	0.542	0.661	0.541																																																																																				
711	0.407	0.383	1.293	1.311	1.268	0.927	0.843	0.808	0.777	0.553	0.674	0.553																																																																																				
712	0.401	0.378	1.305	1.330	1.288	0.943	0.859	0.824	0.793	0.564	0.688	0.564																																																																																				
713	0.395	0.372	1.318	1.349	1.311	0.961	0.876	0.842	0.810	0.577	0.703	0.576																																																																																				
714	0.389	0.366	1.331	1.369	1.333	0.980	0.893	0.859	0.828	0.589	0.718	0.589																																																																																				
715	0.383	0.361	1.343	1.389	1.356	0.999	0.910	0.878	0.845	0.602	0.733	0.601																																																																																				
716	0.377	0.355	1.354	1.407	1.377	1.016	0.927	0.895	0.862	0.613	0.748	0.614																																																																																				
717	0.372	0.350	1.365	1.425	1.398	1.034	0.944	0.912	0.881	0.626	0.764	0.627																																																																																				
718	0.366	0.345	1.375	1.442	1.419	1.051	0.960	0.930	0.897	0.638	0.779	0.639																																																																																				
719	0.361	0.340	1.385	1.461	1.441	1.070	0.978	0.949	0.915	0.652	0.795	0.654																																																																																				
720	0.356	0.335	1.395	1.478	1.461	1.087	0.994	0.966	0.933	0.664	0.811	0.666																																																																																				
721	0.351	0.330	1.405	1.496	1.483	1.106	1.012	0.986	0.952	0.678	0.828	0.681																																																																																				
722	0.345	0.325	1.414	1.514	1.505	1.125	1.030	1.005	0.971	0.692	0.846	0.696																																																																																				
723	0.340	0.320	1.423	1.531	1.526	1.144	1.048	1.025	0.991	0.707	0.864	0.712																																																																																				
724	0.335	0.316	1.431	1.547	1.546	1.162	1.065	1.043	1.010	0.721	0.880	0.726																																																																																				
725	0.331	0.311	1.439	1.563	1.567	1.181	1.083	1.063	1.029	0.735	0.899	0.742																																																																																				
726	0.326	0.307	1.446	1.579	1.586	1.198	1.100	1.082	1.048	0.749	0.916	0.757																																																																																				
727	0.322	0.302	1.453	1.595	1.606	1.216	1.118	1.102	1.068	0.764	0.935	0.773																																																																																				
728	0.317	0.298	1.460	1.611	1.627	1.236	1.137	1.123	1.090	0.780	0.955	0.791																																																																																				
729	0.312	0.294	1.466	1.627	1.647	1.254	1.155	1.143	1.110	0.796	0.975	0.808																																																																																				
730	0.308	0.290	1.472	1.640	1.665	1.271	1.172	1.162	1.129	0.810	0.993	0.824																																																																																				
731	0.304	0.286	1.477	1.654	1.684	1.289	1.190	1.183	1.150	0.825	1.013	0.842																																																																																				
732	0.301	0.282	1.481	1.667	1.702	1.306	1.206	1.202	1.170	0.841	1.032	0.859																																																																																				
733	0.297	0.279	1.486	1.681	1.719	1.323	1.223	1.222	1.190	0.856	1.052	0.877																																																																																				
734	0.293	0.275	1.489	1.692	1.736	1.339	1.239	1.240	1.208	0.871	1.070	0.893																																																																																				
735	0.289	0.271	1.492	1.704	1.752	1.356	1.256	1.260	1.229	0.887	1.090	0.911																																																																																				
736	0.286	0.268	1.495	1.715	1.769	1.373	1.273	1.279	1.249	0.902	1.111	0.929																																																																																				
737	0.282	0.264	1.497	1.726	1.785	1.389	1.290	1.299	1.270	0.918	1.131	0.948																																																																																				
738	0.278	0.261	1.499	1.737	1.801	1.406	1.306	1.318	1.290	0.934	1.152	0.967																																																																																				
739	0.275	0.257	1.500	1.746	1.815	1.421	1.322	1.337	1.310	0.950	1.172	0.986																																																																																				
740	0.271	0.253	1.501	1.756	1.829	1.436	1.337	1.356	1.329	0.965	1.192	1.004																																																																																				
741	0.267	0.250	1.501	1.764	1.843	1.450	1.352	1.374	1.348	0.980	1.211	1.022																																																																																				
742	0.264	0.247	1.501	1.772	1.857	1.465	1.367	1.393	1.368	0.996	1.232	1.041																																																																																				
743	0.261	0.243	1.501	1.779	1.869	1.479	1.382	1.411	1.388	1.011	1.252	1.060																																																																																				
744	0.257	0.240	1.500	1.786	1.881	1.493	1.397	1.429	1.407	1.027	1.273	1.079																																																																																				
745	0.254	0.237	1.498	1.794	1.893	1.506	1.411	1.447	1.426	1.043	1.294	1.099																																																																																				
746	0.251	0.234	1.496	1.799	1.904	1.519	1.425	1.464	1.445	1.058	1.314	1.118																																																																																				
747	0.248	0.230	1.494	1.804	1.916	1.533	1.439	1.483	1.464	1.074	1.335	1.138																																																																																				
748	0.244	0.227	1.491	1.809	1.925	1.545	1.452	1.499	1.482	1.089	1.355	1.158																																																																																				
749	0.241	0.224	1.488	1.814	1.935	1.558	1.466	1.516	1.502	1.105	1.376	1.178																																																																																				
750	0.238	0.221	1.485	1.818	1.944	1.569	1.478	1.533	1.519	1.120	1.397	1.198																																																																																				
751	0.235	0.218	1.481	1.821	1.952	1.579	1.490	1.549	1.537	1.134	1.416	1.216																																																																																				
752	0.233	0.216	1.477	1.824	1.960	1.589	1.501	1.564	1.553	1.148	1.435	1.234																																																																																				
753	0.230	0.213	1.473	1.826	1.967	1.599	1.513	1.579	1.569	1.162	1.454	1.254																																																																																				
754	0.227	0.211	1.468	1.828	1.974	1.609	1.523	1.593	1.586	1.176	1.474	1.272																																																																																				
755	0.225	0.208	1.464	1.829	1.980	1.619	1.534	1.608	1.602	1.190	1.493	1.292																																																																																				
756	0.222	0.205	1.458	1.830	1.986	1.628	1.545	1.623	1.618	1.204	1.512	1.312																																																																																				
757	0.219	0.203	1.452	1.830	1.990	1.636	1.555	1.636	1.634	1.218	1.531	1.330																																																																																				
758	0.216	0.200	1.446	1.830	1.997	1.646	1.567	1.653	1.652	1.234	1.553	1.353																																																																																				
759	0.214	0.197	1.439	1.829	2.000	1.653	1.575	1.666	1.667	1.247	1.572	1.372																																																																																				
760	0.211	0.195	1.433	1.828	2.005	1.661	1.585	1.679	1.682	1.261	1.591	1.391																																																																																				
761	0.209	0.193	1.425	1.826	2.008	1.668	1.594	1.693	1.698	1.275	1.612	1.412																																																																																				
762	0.206	0.190	1.417	1.824	2.010	1.676	1.603	1.706	1.713	1.289	1.631	1.433																																																																																				
763	0.204	0.188	1.411	1.823	2.013	1.681	1.610	1.717	1.727	1.301	1.649	1.452																																																																																				
764	0.202	0.186	1.404	1.820	2.015	1.687	1.617	1.727	1.738	1.312	1.664	1.467																																																																																				
765	0.200	0.184	1.399	1.818	2.015	1.691	1.622	1.736	1.749	1.321	1.677	1.481																																																																																				
766	0.198	0.182	1.391	1.815	2.017	1.695	1.629	1.746	1.760	1.332	1.693	1.498																																																																																				
767	0.195	0.180	1.383	1.810	2.017	1.700	1.636	1.757	1.773	1.344	1.711	1.517																																																																																				
768	0.193	0.177	1.374	1.805	2.017	1.704	1.641	1.767	1.786	1.356	1.729	1.536																																																																																				
769	0.191	0.175	1.365	1.801	2.015	1.708	1.647	1.777	1.798	1.368	1.745	1.555																																																																																				
770	0.189	0.173	1.356	1.795	2.016	1.712	1.653	1.786	1.808	1.379	1.761	1.573																																																																																				
771	0.187	0.171	1.348	1.790	2.013	1.713	1.657	1.794	1.819	1.389	1.778	1.590																																																																																				
772	0.185	0.169	1.339	1.784	2.010	1.716	1.661	1.802	1.829	1.399	1.792	1.607																																																																																				
773	0.183	0.167	1.329	1.778	2.008	1.718	1.665	1.810	1.840	1.409	1.807	1.625																																																																																				
774	0.181	0.166	1.320	1.772	2.005	1.720	1.669	1.817	1.849	1.419	1.823	1.641																																																																																				
775	0.179	0.164	1.311	1.765	2.002	1.721	1.672	1.825	1.858	1.428	1.837	1.657																																																																																				
776	0.177	0.162	1.301	1.758	1.998	1.722	1.675	1.831	1.866	1.437	1.849	1.674																																																																																				
777	0.176	0.160	1.292	1.750	1.995	1.722	1.677	1.837	1.874	1.446	1.862	1.690																																																																																				
778	0.174	0.158	1.281	1.742	1.989	1.723	1.680	1.843	1.883	1.455	1.877	1.707																																																																																				
779	0.172	0.156	1.271	1.734	1.984	1.722	1.681	1.848	1.890	1.463	1.890	1.722																																																																																				
780	0.170	0.154	1.261	1.725	1.979	1.721	1.682	1.854	1.897	1.471	1.903	1.738																																																																																				
781	0.168	0.153	1.251	1.717	1.972	1.720	1.683	1.857	1.904	1.478	1.915	1.752																																																																																				
782	0.167	0.151	1.241	1.708	1.967	1.718	1.683	1.861	1.909	1.486	1.926	1.766																																																																																				
783	0.165	0.149	1.230	1.699	1.959	1.717	1.684	1.865	1.914	1.492	1.936	1.781																																																																																				
784	0.164	0.148	1.220	1.689	1.953	1.714	1.683	1.869	1.920	1.499	1.947	1.796																																																																																				
785	0.162	0.146	1.209	1.679	1.944	1.712	1.683	1.870	1.925	1.506	1.959	1.809																																																																																				
786	0.160	0.144	1.197	1.669	1.937	1.708	1.682	1.873	1.929	1.512	1.970	1.823																																																																																				
787	0.159	0.143	1.186	1.658	1.928	1.704	1.679	1.875	1.932	1.518	1.978	1.837																																																																																				
788	0.157	0.141	1.175	1.648	1.921	1.702	1.679	1.876	1.936	1.523	1.987	1.849																																																																																				
789	0.156	0.140	1.165	1.637	1.912	1.697	1.677	1.877	1.938	1.527	1.996	1.860																																																																																				
790	0.154	0.139	1.155	1.627	1.904	1.693	1.674	1.877	1.941	1.532	2.003	1.872																																																																																				
791	0.152	0.137	1.145	1.616	1.894	1.688	1.671	1.878	1.942	1.535	2.010	1.883																																																																																				
792	0.151	0.136	1.132	1.603	1.883	1.682	1.668	1.877	1.946	1.540	2.019	1.895																																																																																				
793	0.150	0.134	1.121	1.592	1.874	1.677	1.665	1.876	1.946	1.543	2.025	1.905																																																																																				
794	0.148	0.133	1.111	1.581	1.863	1.671	1.661	1.875	1.945	1.546	2.031	1.916																																																																																				
795	0.147	0.131	1.098	1.568	1.851	1.664	1.655	1.874	1.946	1.548	2.037	1.925																																																																																				
796	0.146	0.130	1.089	1.557	1.842	1.658	1.652	1.872	1.947	1.551	2.042	1.934																																																																																				
797	0.144	0.129	1.078	1.546	1.831	1.652	1.647	1.869	1.944	1.553	2.046	1.942																																																																																				
798	0.143	0.128	1.067	1.533	1.820	1.645	1.642	1.866	1.945	1.555	2.049	1.950																																																																																				
799	0.141	0.126	1.056	1.521	1.808	1.637	1.636	1.863	1.942	1.556	2.055	1.959																																																																																				
800	0.141	0.125	1.045	1.508	1.796	1.630	1.631	1.860	1.942	1.557	2.058	1.967																																																																																				
801	0.139	0.124	1.033	1.495	1.784	1.622	1.624	1.854	1.938	1.557	2.060	1.974																																																																																				
802	0.138	0.123	1.023	1.483	1.772	1.614	1.617	1.850	1.934	1.558	2.063	1.980																																																																																				
803	0.137	0.122	1.012	1.471	1.760	1.605	1.611	1.846	1.933	1.558	2.065	1.987																																																																																				
804	0.136	0.120	1.000	1.457	1.747	1.596	1.604	1.840	1.928	1.558	2.066	1.992																																																																																				
805	0.135	0.119	0.990	1.444	1.734	1.588	1.597	1.835	1.926	1.556	2.067	1.999																																																																																				
806	0.134	0.118	0.980	1.432	1.723	1.579	1.590	1.830	1.920	1.556	2.069	2.003																																																																																				
807	0.133	0.117	0.969	1.419	1.710	1.570	1.583	1.823	1.916	1.554	2.069	2.008																																																																																				
808	0.132	0.116	0.959	1.407	1.697	1.562	1.575	1.818	1.912	1.553	2.070	2.011																																																																																				
809	0.130	0.115	0.949	1.394	1.684	1.552	1.568	1.811	1.907	1.551	2.069	2.015																																																																																				
810	0.129	0.114	0.938	1.382	1.672	1.543	1.559	1.805	1.901	1.549	2.069	2.018																																																																																				
811	0.129	0.113	0.927	1.369	1.658	1.532	1.550	1.797	1.895	1.546	2.067	2.021																																																																																				
812	0.128	0.112	0.917	1.355	1.645	1.523	1.542	1.790	1.888	1.543	2.066	2.023																																																																																				
813	0.127	0.111	0.906	1.342	1.630	1.511	1.533	1.781	1.882	1.540	2.063	2.024																																																																																				
814	0.126	0.111	0.896	1.329	1.619	1.501	1.524	1.774	1.875	1.536	2.061	2.027																																																																																				
815	0.125	0.110	0.885	1.315	1.603	1.491	1.514	1.765	1.868	1.533	2.058	2.029																																																																																				
816	0.124	0.109	0.874	1.300	1.588	1.479	1.504	1.755	1.860	1.529	2.056	2.029																																																																																				
817	0.123	0.108	0.865	1.288	1.574	1.469	1.495	1.747	1.852	1.525	2.053	2.029																																																																																				
818	0.123	0.107	0.853	1.274	1.559	1.457	1.485	1.737	1.843	1.520	2.049	2.029																																																																																				
819	0.122	0.107	0.842	1.259	1.543	1.445	1.473	1.726	1.834	1.515	2.044	2.029																																																																																				
820	0.123	0.106	0.829	1.242	1.523	1.430	1.458	1.713	1.822	1.508	2.038	2.027																																																																																				
821	0.124	0.105	0.817	1.226	1.505	1.417	1.446	1.701	1.812	1.501	2.032	2.026																																																																																				
822	0.121	0.104	0.809	1.216	1.495	1.408	1.438	1.693	1.805	1.497	2.028	2.025																																																																																				
823	0.119	0.104	0.804	1.209	1.490	1.402	1.434	1.689	1.800	1.494	2.025	2.024																																																																																				
824	0.118	0.103	0.799	1.203	1.483	1.396	1.430	1.684	1.796	1.492	2.022	2.023																																																																																				
825	0.116	0.103	0.793	1.194	1.474	1.388	1.423	1.677	1.789	1.488	2.018	2.021																																																																																				
826	0.116	0.102	0.780	1.177	1.455	1.373	1.409	1.663	1.776	1.480	2.010	2.017																																																																																				
827	0.117	0.102	0.769	1.162	1.438	1.359	1.396	1.650	1.764	1.472	2.002	2.013																																																																																				
828	0.116	0.101	0.761	1.151	1.426	1.349	1.386	1.640	1.755	1.466	1.997	2.010																																																																																				
829	0.115	0.101	0.755	1.142	1.417	1.341	1.379	1.633	1.748	1.462	1.992	2.007																																																																																				
830	0.114	0.101	0.747	1.132	1.405	1.331	1.370	1.623	1.739	1.456	1.985	2.003																																																																																				
831	0.114	0.101	0.737	1.117	1.388	1.317	1.357	1.609	1.726	1.447	1.977	1.998																																																																																				
832	0.116	0.100	0.723	1.097	1.364	1.299	1.338	1.591	1.708	1.435	1.964	1.990																																																																																				
833	0.116	0.100	0.713	1.083	1.349	1.285	1.327	1.578	1.696	1.427	1.955	1.983																																																																																				
834	0.114	0.099	0.707	1.074	1.339	1.276	1.318	1.569	1.688	1.421	1.948	1.979																																																																																				
835	0.113	0.099	0.700	1.065	1.329	1.268	1.310	1.560	1.679	1.415	1.942	1.974																																																																																				
836	0.112	0.098	0.694	1.056	1.319	1.259	1.302	1.552	1.670	1.409	1.935	1.969																																																																																				
837	0.111	0.098	0.686	1.044	1.306	1.247	1.292	1.540	1.659	1.401	1.926	1.963																																																																																				
838	0.112	0.097	0.676	1.030	1.288	1.233	1.277	1.526	1.645	1.391	1.915	1.954																																																																																				
839	0.112	0.097	0.666	1.015	1.271	1.219	1.263	1.510	1.630	1.380	1.902	1.946																																																																																				
840	0.111	0.096	0.657	1.004	1.258	1.207	1.252	1.498	1.617	1.372	1.893	1.938																																																																																				
841	0.110	0.096	0.650	0.993	1.246	1.196	1.242	1.487	1.606	1.364	1.883	1.931																																																																																				
842	0.109	0.095	0.643	0.983	1.235	1.185	1.232	1.476	1.596	1.356	1.874	1.923																																																																																				
843	0.108	0.095	0.636	0.972	1.222	1.175	1.222	1.464	1.584	1.348	1.864	1.915																																																																																				
844	0.108	0.094	0.627	0.959	1.206	1.161	1.208	1.450	1.570	1.337	1.851	1.904																																																																																				
845	0.108	0.094	0.619	0.947	1.192	1.148	1.196	1.436	1.557	1.327	1.839	1.894																																																																																				
846	0.107	0.093	0.611	0.935	1.179	1.137	1.185	1.424	1.544	1.318	1.827	1.886																																																																																				
847	0.107	0.093	0.603	0.924	1.165	1.125	1.173	1.411	1.531	1.308	1.818	1.875																																																																																				
848	0.107	0.093	0.597	0.914	1.154	1.114	1.163	1.400	1.520	1.300	1.808	1.867																																																																																				
849	0.106	0.092	0.589	0.903	1.141	1.103	1.152	1.387	1.507	1.290	1.795	1.857																																																																																				
850	0.107	0.092	0.583	0.893	1.129	1.092	1.141	1.375	1.495	1.280	1.784	1.848																																																																																				
851	0.106	0.091	0.576	0.882	1.116	1.081	1.131	1.363	1.482	1.271	1.772	1.838																																																																																				
852	0.105	0.091	0.568	0.871	1.102	1.068	1.118	1.349	1.468	1.261	1.760	1.826																																																																																				
853	0.105	0.091	0.561	0.861	1.091	1.058	1.108	1.337	1.456	1.251	1.748	1.818																																																																																				
854	0.105	0.090	0.555	0.850	1.078	1.046	1.097	1.325	1.443	1.241	1.736	1.806																																																																																				
855	0.104	0.090	0.547	0.840	1.066	1.036	1.087	1.312	1.431	1.232	1.724	1.795																																																																																				
856	0.104	0.090	0.541	0.830	1.053	1.024	1.075	1.299	1.417	1.221	1.711	1.784																																																																																				
857	0.104	0.089	0.534	0.820	1.042	1.013	1.064	1.287	1.404	1.212	1.699	1.773																																																																																				
858	0.104	0.089	0.528	0.810	1.030	1.002	1.053	1.275	1.392	1.201	1.687	1.761																																																																																				
859	0.103	0.089	0.521	0.800	1.017	0.991	1.042	1.262	1.379	1.192	1.673	1.750																																																																																				
860	0.103	0.088	0.515	0.791	1.007	0.981	1.032	1.250	1.367	1.183	1.661	1.738																																																																																				
861	0.103	0.088	0.510	0.782	0.996	0.971	1.022	1.239	1.355	1.174	1.650	1.729																																																																																				
862	0.103	0.088	0.504	0.773	0.984	0.960	1.012	1.227	1.342	1.163	1.637	1.717																																																																																				
863	0.103	0.088	0.498	0.764	0.974	0.951	1.003	1.215	1.330	1.154	1.625	1.705																																																																																				
864	0.102	0.088	0.492	0.754	0.962	0.940	0.992	1.203	1.318	1.144	1.612	1.693																																																																																				
865	0.102	0.087	0.487	0.746	0.952	0.930	0.982	1.191	1.305	1.134	1.598	1.682																																																																																				
866	0.102	0.087	0.481	0.737	0.939	0.919	0.971	1.179	1.292	1.124	1.585	1.669																																																																																				
867	0.102	0.087	0.476	0.728	0.930	0.910	0.962	1.167	1.280	1.115	1.574	1.658																																																																																				
868	0.102	0.087	0.470	0.719	0.919	0.900	0.952	1.156	1.268	1.105	1.561	1.647																																																																																				
869	0.102	0.087	0.465	0.711	0.909	0.890	0.942	1.144	1.256	1.096	1.548	1.634																																																																																				
870	0.102	0.087	0.460	0.703	0.899	0.881	0.933	1.133	1.244	1.086	1.536	1.622																																																																																				
871	0.102	0.087	0.455	0.695	0.889	0.871	0.923	1.121	1.232	1.076	1.522	1.610																																																																																				
872	0.103	0.087	0.451	0.688	0.879	0.863	0.914	1.111	1.221	1.068	1.511	1.599																																																																																				
873	0.103	0.087	0.445	0.679	0.869	0.853	0.904	1.099	1.208	1.058	1.497	1.586																																																																																				
874	0.102	0.087	0.441	0.671	0.859	0.844	0.895	1.088	1.197	1.048	1.485	1.574																																																																																				
875	0.102	0.087	0.435	0.663	0.848	0.834	0.885	1.077	1.185	1.039	1.472	1.561																																																																																				
876	0.102	0.087	0.430	0.655	0.839	0.824	0.875	1.065	1.172	1.028	1.458	1.548																																																																																				
877	0.103	0.087	0.424	0.646	0.827	0.814	0.864	1.052	1.159	1.017	1.444	1.534																																																																																				
878	0.104	0.087	0.418	0.635	0.813	0.801	0.851	1.036	1.143	1.004	1.426	1.517																																																																																				
879	0.106	0.086	0.411	0.624	0.799	0.789	0.837	1.021	1.127	0.991	1.409	1.500																																																																																				
880	0.105	0.085	0.406	0.616	0.788	0.779	0.827	1.009	1.113	0.980	1.395	1.486																																																																																				
881	0.102	0.085	0.403	0.611	0.784	0.773	0.822	1.003	1.107	0.974	1.387	1.478																																																																																				
882	0.099	0.084	0.400	0.608	0.781	0.768	0.819	0.997	1.101	0.969	1.380	1.471																																																																																				
883	0.097	0.084	0.398	0.605	0.778	0.764	0.816	0.992	1.095	0.965	1.374	1.464																																																																																				
884	0.095	0.084	0.395	0.600	0.774	0.759	0.811	0.986	1.088	0.959	1.365	1.456																																																																																				
885	0.095	0.084	0.391	0.593	0.767	0.751	0.803	0.976	1.078	0.950	1.353	1.444																																																																																				
886	0.096	0.083	0.384	0.583	0.752	0.738	0.789	0.960	1.060	0.936	1.335	1.425																																																																																				
887	0.096	0.083	0.379	0.575	0.741	0.728	0.778	0.948	1.047	0.925	1.321	1.411																																																																																				
888	0.097	0.083	0.375	0.567	0.731	0.719	0.769	0.937	1.036	0.915	1.307	1.398																																																																																				
889	0.097	0.083	0.370	0.560	0.722	0.710	0.760	0.926	1.024	0.905	1.294	1.384																																																																																				
890	0.097	0.083	0.366	0.553	0.713	0.701	0.751	0.915	1.012	0.895	1.281	1.371																																																																																				
891	0.097	0.083	0.361	0.545	0.703	0.692	0.741	0.903	1.000	0.885	1.267	1.357																																																																																				
892	0.098	0.083	0.356	0.537	0.692	0.682	0.730	0.890	0.986	0.873	1.251	1.340																																																																																				
893	0.099	0.082	0.352	0.530	0.682	0.673	0.720	0.878	0.973	0.862	1.236	1.325																																																																																				
894	0.098	0.082	0.348	0.524	0.674	0.665	0.713	0.870	0.964	0.854	1.225	1.314																																																																																				
895	0.096	0.082	0.345	0.519	0.670	0.660	0.708	0.862	0.956	0.848	1.216	1.305																																																																																				
896	0.095	0.082	0.343	0.515	0.666	0.655	0.704	0.857	0.949	0.842	1.209	1.296																																																																																				
897	0.093	0.082	0.340	0.511	0.661	0.649	0.698	0.849	0.942	0.836	1.199	1.287																																																																																				
898	0.093	0.082	0.337	0.506	0.655	0.643	0.692	0.841	0.933	0.828	1.189	1.276																																																																																				
899	0.094	0.082	0.333	0.499	0.646	0.634	0.683	0.830	0.921	0.818	1.175	1.262																																																																																				
900	0.095	0.082	0.329	0.492	0.636	0.626	0.673	0.819	0.909	0.808	1.161	1.248																																																																																				
901	0.097	0.082	0.325	0.485	0.626	0.617	0.663	0.806	0.895	0.796	1.145	1.231																																																																																				
902	0.099	0.082	0.320	0.477	0.615	0.607	0.652	0.794	0.882	0.786	1.131	1.216																																																																																				
903	0.098	0.081	0.317	0.471	0.607	0.600	0.644	0.785	0.872	0.777	1.119	1.203																																																																																				
904	0.096	0.081	0.315	0.468	0.604	0.596	0.641	0.779	0.866	0.771	1.111	1.195																																																																																				
905	0.095	0.081	0.313	0.466	0.602	0.592	0.638	0.775	0.861	0.767	1.105	1.189																																																																																				
906	0.093	0.081	0.311	0.463	0.599	0.588	0.635	0.770	0.855	0.762	1.097	1.181																																																																																				
907	0.092	0.082	0.309	0.459	0.595	0.583	0.630	0.763	0.848	0.756	1.089	1.171																																																																																				
908	0.094	0.082	0.305	0.452	0.585	0.574	0.620	0.751	0.835	0.745	1.073	1.156																																																																																				
909	0.095	0.082	0.301	0.445	0.576	0.566	0.611	0.741	0.824	0.736	1.060	1.142																																																																																				
910	0.096	0.082	0.299	0.440	0.568	0.559	0.604	0.732	0.814	0.727	1.048	1.130																																																																																				
911	0.097	0.082	0.296	0.435	0.562	0.553	0.597	0.723	0.805	0.719	1.037	1.117																																																																																				
912	0.098	0.083	0.292	0.429	0.553	0.545	0.588	0.713	0.793	0.709	1.024	1.103																																																																																				
913	0.100	0.083	0.289	0.423	0.545	0.538	0.579	0.703	0.782	0.700	1.010	1.089																																																																																				
914	0.102	0.083	0.286	0.417	0.536	0.530	0.571	0.693	0.771	0.690	0.997	1.075																																																																																				
915	0.100	0.083	0.284	0.414	0.533	0.525	0.567	0.687	0.765	0.684	0.989	1.067																																																																																				
916	0.098	0.083	0.283	0.412	0.532	0.523	0.565	0.683	0.761	0.681	0.984	1.061																																																																																				
917	0.097	0.083	0.282	0.411	0.531	0.520	0.563	0.680	0.757	0.678	0.979	1.056																																																																																				
918	0.094	0.084	0.281	0.409	0.529	0.517	0.561	0.676	0.753	0.674	0.973	1.050																																																																																				
919	0.095	0.084	0.279	0.406	0.526	0.513	0.557	0.670	0.745	0.668	0.964	1.040																																																																																				
920	0.097	0.085	0.276	0.401	0.519	0.507	0.550	0.662	0.737	0.660	0.953	1.028																																																																																				
921	0.099	0.086	0.274	0.396	0.512	0.500	0.543	0.653	0.727	0.651	0.942	1.015																																																																																				
922	0.100	0.087	0.272	0.393	0.507	0.495	0.537	0.646	0.720	0.645	0.932	1.005																																																																																				
923	0.100	0.087	0.270	0.389	0.501	0.490	0.532	0.639	0.712	0.637	0.921	0.994																																																																																				
924	0.101	0.088	0.269	0.386	0.497	0.486	0.527	0.633	0.704	0.631	0.913	0.985																																																																																				
925	0.102	0.089	0.267	0.383	0.493	0.481	0.522	0.627	0.698	0.626	0.904	0.975																																																																																				
926	0.104	0.090	0.266	0.380	0.488	0.477	0.517	0.621	0.691	0.620	0.895	0.966																																																																																				
927	0.105	0.091	0.265	0.378	0.485	0.473	0.513	0.615	0.684	0.614	0.887	0.957																																																																																				
928	0.107	0.093	0.264	0.375	0.480	0.469	0.508	0.609	0.677	0.608	0.878	0.947																																																																																				
929	0.108	0.094	0.263	0.372	0.477	0.465	0.504	0.604	0.672	0.602	0.871	0.939																																																																																				
930	0.109	0.095	0.262	0.370	0.474	0.462	0.501	0.599	0.666	0.597	0.864	0.931																																																																																				
931	0.110	0.096	0.261	0.368	0.471	0.458	0.497	0.594	0.660	0.592	0.856	0.923																																																																																				
932	0.112	0.098	0.260	0.366	0.468	0.455	0.493	0.589	0.655	0.587	0.849	0.915																																																																																				
933	0.114	0.100	0.260	0.364	0.465	0.451	0.489	0.584	0.649	0.582	0.841	0.906																																																																																				
934	0.116	0.102	0.259	0.362	0.462	0.448	0.485	0.579	0.644	0.577	0.834	0.898																																																																																				
935	0.119	0.103	0.258	0.361	0.459	0.445	0.481	0.574	0.638	0.572	0.826	0.890																																																																																				
936	0.120	0.105	0.258	0.359	0.456	0.442	0.478	0.570	0.633	0.568	0.820	0.883																																																																																				
937	0.121	0.107	0.258	0.358	0.455	0.440	0.476	0.566	0.629	0.564	0.814	0.876																																																																																				
938	0.121	0.108	0.258	0.357	0.454	0.438	0.474	0.563	0.626	0.560	0.809	0.871																																																																																				
939	0.122	0.110	0.258	0.357	0.453	0.436	0.473	0.560	0.623	0.557	0.804	0.865																																																																																				
940	0.123	0.112	0.258	0.356	0.452	0.434	0.471	0.558	0.619	0.554	0.799	0.860																																																																																				
941	0.126	0.114	0.258	0.355	0.451	0.433	0.468	0.554	0.615	0.550	0.793	0.854																																																																																				
942	0.129	0.117	0.259	0.355	0.449	0.430	0.466	0.551	0.611	0.546	0.788	0.847																																																																																				
943	0.132	0.119	0.260	0.355	0.448	0.429	0.464	0.548	0.608	0.543	0.783	0.841																																																																																				
944	0.134	0.122	0.260	0.354	0.447	0.427	0.462	0.545	0.605	0.540	0.778	0.835																																																																																				
945	0.137	0.124	0.261	0.355	0.447	0.427	0.461	0.543	0.602	0.537	0.774	0.831																																																																																				
946	0.140	0.128	0.263	0.356	0.447	0.426	0.460	0.541	0.600	0.535	0.770	0.826																																																																																				
947	0.143	0.131	0.264	0.357	0.447	0.426	0.459	0.540	0.598	0.533	0.767	0.822																																																																																				
948	0.147	0.135	0.266	0.358	0.448	0.426	0.459	0.539	0.596	0.531	0.764	0.818																																																																																				
949	0.151	0.139	0.268	0.360	0.449	0.426	0.458	0.538	0.595	0.530	0.761	0.815																																																																																				
950	0.154	0.143	0.271	0.362	0.452	0.427	0.459	0.538	0.595	0.529	0.760	0.812																																																																																				
951	0.157	0.147	0.273	0.365	0.454	0.428	0.460	0.539	0.595	0.528	0.758	0.810																																																																																				
952	0.160	0.151	0.276	0.367	0.456	0.429	0.461	0.539	0.595	0.528	0.757	0.809																																																																																				
953	0.164	0.155	0.278	0.370	0.459	0.431	0.463	0.540	0.595	0.528	0.757	0.807																																																																																				
954	0.169	0.160	0.282	0.373	0.462	0.432	0.464	0.540	0.596	0.527	0.755	0.806																																																																																				
955	0.175	0.166	0.285	0.376	0.464	0.434	0.465	0.541	0.595	0.527	0.754	0.803																																																																																				
956	0.179	0.170	0.287	0.378	0.465	0.435	0.465	0.541	0.595	0.526	0.753	0.801																																																																																				
957	0.183	0.174	0.290	0.380	0.467	0.435	0.465	0.540	0.594	0.525	0.751	0.798																																																																																				
958	0.187	0.177	0.292	0.381	0.467	0.435	0.465	0.539	0.593	0.523	0.748	0.795																																																																																				
959	0.189	0.180	0.293	0.382	0.468	0.435	0.464	0.538	0.591	0.522	0.745	0.791																																																																																				
960	0.192	0.182	0.294	0.383	0.467	0.434	0.463	0.536	0.589	0.519	0.741	0.787																																																																																				
961	0.194	0.184	0.294	0.382	0.467	0.433	0.461	0.534	0.586	0.517	0.737	0.782																																																																																				
962	0.196	0.186	0.294	0.382	0.465	0.431	0.460	0.531	0.583	0.514	0.732	0.777																																																																																				
963	0.197	0.187	0.294	0.381	0.464	0.430	0.458	0.529	0.580	0.511	0.728	0.772																																																																																				
964	0.198	0.188	0.294	0.380	0.462	0.428	0.455	0.526	0.577	0.508	0.723	0.766																																																																																				
965	0.199	0.189	0.294	0.379	0.459	0.425	0.452	0.522	0.573	0.504	0.718	0.760																																																																																				
966	0.200	0.190	0.293	0.377	0.457	0.423	0.450	0.518	0.568	0.500	0.712	0.753																																																																																				
967	0.201	0.190	0.292	0.376	0.455	0.421	0.447	0.515	0.565	0.497	0.707	0.748																																																																																				
968	0.201	0.191	0.292	0.374	0.454	0.419	0.445	0.512	0.561	0.494	0.702	0.743																																																																																				
969	0.201	0.191	0.291	0.373	0.452	0.416	0.443	0.509	0.558	0.490	0.697	0.737																																																																																				
970	0.201	0.191	0.290	0.371	0.450	0.414	0.440	0.506	0.554	0.487	0.692	0.731																																																																																				
971	0.201	0.191	0.289	0.369	0.447	0.412	0.438	0.502	0.550	0.484	0.687	0.725																																																																																				
972	0.201	0.192	0.288	0.368	0.446	0.410	0.435	0.499	0.546	0.480	0.681	0.720																																																																																				
973	0.201	0.192	0.288	0.366	0.443	0.407	0.433	0.495	0.542	0.476	0.676	0.714																																																																																				
974	0.202	0.193	0.286	0.364	0.440	0.404	0.429	0.491	0.538	0.472	0.670	0.707																																																																																				
975	0.203	0.193	0.285	0.361	0.436	0.401	0.425	0.487	0.532	0.468	0.663	0.699																																																																																				
976	0.205	0.192	0.283	0.358	0.431	0.397	0.420	0.481	0.526	0.462	0.655	0.691																																																																																				
977	0.207	0.191	0.281	0.356	0.427	0.394	0.416	0.477	0.522	0.458	0.649	0.685																																																																																				
978	0.204	0.191	0.281	0.354	0.425	0.392	0.414	0.474	0.519	0.455	0.645	0.680																																																																																				
979	0.201	0.190	0.280	0.353	0.425	0.390	0.414	0.472	0.516	0.453	0.642	0.676																																																																																				
980	0.198	0.190	0.279	0.353	0.426	0.389	0.414	0.471	0.515	0.452	0.640	0.674																																																																																				
981	0.195	0.191	0.279	0.352	0.427	0.388	0.414	0.470	0.513	0.450	0.637	0.671																																																																																				
982	0.194	0.190	0.278	0.351	0.426	0.386	0.413	0.467	0.510	0.447	0.633	0.666																																																																																				
983	0.195	0.189	0.276	0.348	0.423	0.383	0.409	0.462	0.505	0.443	0.626	0.659																																																																																				
984	0.196	0.188	0.273	0.343	0.415	0.377	0.403	0.456	0.498	0.436	0.617	0.649																																																																																				
985	0.196	0.186	0.270	0.339	0.409	0.373	0.397	0.449	0.491	0.430	0.609	0.640																																																																																				
986	0.195	0.186	0.268	0.336	0.404	0.369	0.393	0.445	0.486	0.426	0.602	0.633																																																																																				
987	0.195	0.185	0.266	0.333	0.399	0.365	0.388	0.439	0.480	0.421	0.595	0.625																																																																																				
988	0.195	0.184	0.263	0.328	0.394	0.361	0.383	0.433	0.473	0.416	0.587	0.616																																																																																				
989	0.196	0.182	0.260	0.325	0.389	0.357	0.377	0.428	0.468	0.411	0.580	0.609																																																																																				
990	0.196	0.179	0.258	0.321	0.384	0.353	0.373	0.423	0.462	0.406	0.573	0.602																																																																																				
991	0.193	0.178	0.257	0.319	0.382	0.350	0.371	0.420	0.459	0.403	0.569	0.597																																																																																				
992	0.189	0.177	0.256	0.318	0.382	0.349	0.371	0.419	0.457	0.401	0.566	0.594																																																																																				
993	0.186	0.177	0.256	0.318	0.383	0.348	0.371	0.418	0.456	0.400	0.564	0.592																																																																																				
994	0.182	0.177	0.255	0.317	0.383	0.346	0.371	0.416	0.454	0.398	0.561	0.589																																																																																				
995	0.181	0.176	0.253	0.315	0.382	0.344	0.370	0.413	0.451	0.395	0.557	0.584																																																																																				
996	0.181	0.174	0.251	0.311	0.378	0.340	0.366	0.408	0.445	0.391	0.550	0.577																																																																																				
997	0.180	0.172	0.248	0.307	0.371	0.335	0.360	0.402	0.438	0.385	0.542	0.568																																																																																				
998	0.179	0.170	0.245	0.303	0.365	0.331	0.355	0.396	0.432	0.380	0.535	0.560																																																																																				
999	0.178	0.169	0.242	0.299	0.360	0.327	0.350	0.391	0.427	0.375	0.528	0.553																																																																																				

结果
	1	2	3	4	5	6	7	8	9	10	11	12
A	0.958	0.969	1.501	1.830	2.017	1.723	1.684	1.878	1.947	1.558	2.070	2.029	Mean Max OD [Spectrum]
B	?????	?????	?????	?????	?????	?????	?????	?????	?????	?????	?????	?????	Mean Max OD [Spectrum]
C	?????	?????	?????	?????	?????	?????	?????	?????	?????	?????	?????	?????	Mean Max OD [Spectrum]
D	?????	?????	?????	?????	?????	?????	?????	?????	?????	?????	?????	?????	Mean Max OD [Spectrum]
E	?????	?????	?????	?????	?????	?????	?????	?????	?????	?????	?????	?????	Mean Max OD [Spectrum]
F	?????	?????	?????	?????	?????	?????	?????	?????	?????	?????	?????	?????	Mean Max OD [Spectrum]
G	?????	?????	?????	?????	?????	?????	?????	?????	?????	?????	?????	?????	Mean Max OD [Spectrum]
H	?????	?????	?????	?????	?????	?????	?????	?????	?????	?????	?????	?????	Mean Max OD [Spectrum]

