

软件版本	3.11.19



实验文件路径:	
方案文件路径:	



板编号	板 1
日期	2023/4/16
时间	10:12:33
检测仪类型:	Epoch 2
检测仪序列号:	2205170B
检测类型	检测仪

程序详细信息

板类型	96 WELL PLATE
完成后弹出板	
检测	吸收光 光谱
	A1..A12
	开始: 400 nm,  停止: 999 nm,  步骤: 1 nm
	检测前校准
	检测速度: 正常,  延迟: 100 msec,  测量值/数据点: 8

Spectrum

波长	A1	A2	A3	A4	A5	A6	A7	A8	A9	A10	A11	A12	B1	B2	B3	B4	B5	B6	B7	B8	B9	B10	B11	B12	C1	C2	C3	C4	C5	C6	C7	C8	C9	C10	C11	C12	D1	D2	D3	D4	D5	D6	D7	D8	D9	D10	D11	D12	E1	E2	E3	E4	E5	E6	E7	E8	E9	E10	E11	E12	F1	F2	F3	F4	F5	F6	F7	F8	F9	F10	F11	F12	G1	G2	G3	G4	G5	G6	G7	G8	G9	G10	G11	G12	H1	H2	H3	H4	H5	H6	H7	H8	H9	H10	H11	H12
400	0.489	0.503	0.541	0.535	0.549	0.528	0.512	0.566	0.534	0.518	0.541	0.539																																																																																				
401	0.488	0.502	0.540	0.534	0.548	0.527	0.511	0.564	0.533	0.517	0.539	0.537																																																																																				
402	0.487	0.501	0.539	0.532	0.546	0.525	0.509	0.563	0.531	0.516	0.538	0.536																																																																																				
403	0.485	0.499	0.537	0.531	0.544	0.524	0.508	0.561	0.530	0.514	0.536	0.534																																																																																				
404	0.484	0.498	0.536	0.529	0.543	0.523	0.507	0.560	0.528	0.513	0.535	0.533																																																																																				
405	0.483	0.497	0.535	0.528	0.542	0.521	0.505	0.559	0.527	0.512	0.534	0.532																																																																																				
406	0.482	0.496	0.533	0.527	0.541	0.520	0.504	0.557	0.526	0.511	0.533	0.531																																																																																				
407	0.481	0.495	0.532	0.526	0.540	0.519	0.503	0.556	0.525	0.509	0.532	0.529																																																																																				
408	0.479	0.493	0.531	0.524	0.538	0.518	0.502	0.555	0.523	0.508	0.530	0.528																																																																																				
409	0.478	0.492	0.530	0.523	0.537	0.516	0.501	0.553	0.522	0.507	0.529	0.527																																																																																				
410	0.477	0.491	0.528	0.522	0.536	0.515	0.499	0.552	0.521	0.506	0.528	0.525																																																																																				
411	0.476	0.490	0.527	0.521	0.534	0.514	0.498	0.551	0.520	0.505	0.527	0.524																																																																																				
412	0.475	0.489	0.526	0.519	0.533	0.513	0.497	0.549	0.519	0.503	0.525	0.523																																																																																				
413	0.473	0.487	0.525	0.518	0.532	0.511	0.496	0.548	0.517	0.502	0.524	0.522																																																																																				
414	0.472	0.486	0.524	0.517	0.530	0.510	0.494	0.547	0.516	0.501	0.523	0.520																																																																																				
415	0.471	0.485	0.522	0.516	0.529	0.509	0.493	0.545	0.515	0.500	0.522	0.519																																																																																				
416	0.470	0.484	0.521	0.514	0.528	0.508	0.492	0.544	0.514	0.499	0.521	0.518																																																																																				
417	0.469	0.483	0.520	0.513	0.527	0.507	0.491	0.543	0.513	0.497	0.519	0.517																																																																																				
418	0.468	0.482	0.519	0.512	0.526	0.505	0.490	0.541	0.512	0.496	0.518	0.516																																																																																				
419	0.467	0.481	0.518	0.511	0.524	0.504	0.489	0.540	0.510	0.495	0.517	0.514																																																																																				
420	0.466	0.480	0.517	0.510	0.523	0.503	0.488	0.539	0.509	0.494	0.516	0.513																																																																																				
421	0.465	0.479	0.516	0.509	0.522	0.502	0.487	0.538	0.508	0.493	0.515	0.512																																																																																				
422	0.464	0.478	0.515	0.508	0.521	0.501	0.486	0.537	0.508	0.492	0.514	0.511																																																																																				
423	0.463	0.477	0.514	0.507	0.520	0.500	0.485	0.536	0.507	0.491	0.513	0.510																																																																																				
424	0.462	0.476	0.513	0.506	0.519	0.499	0.484	0.535	0.506	0.490	0.512	0.509																																																																																				
425	0.461	0.475	0.512	0.505	0.518	0.498	0.483	0.534	0.505	0.489	0.511	0.508																																																																																				
426	0.460	0.474	0.511	0.504	0.517	0.497	0.482	0.533	0.504	0.489	0.510	0.508																																																																																				
427	0.460	0.473	0.510	0.503	0.516	0.497	0.481	0.532	0.503	0.488	0.509	0.507																																																																																				
428	0.459	0.472	0.510	0.502	0.515	0.496	0.480	0.531	0.502	0.487	0.508	0.506																																																																																				
429	0.458	0.471	0.508	0.501	0.514	0.494	0.479	0.529	0.501	0.486	0.507	0.504																																																																																				
430	0.457	0.470	0.507	0.500	0.513	0.493	0.478	0.528	0.500	0.485	0.506	0.504																																																																																				
431	0.456	0.470	0.507	0.499	0.512	0.493	0.478	0.527	0.499	0.484	0.505	0.503																																																																																				
432	0.455	0.469	0.505	0.498	0.511	0.492	0.476	0.526	0.498	0.483	0.504	0.501																																																																																				
433	0.454	0.468	0.505	0.497	0.510	0.491	0.476	0.525	0.497	0.482	0.503	0.501																																																																																				
434	0.453	0.467	0.504	0.496	0.509	0.490	0.475	0.524	0.496	0.481	0.502	0.500																																																																																				
435	0.452	0.466	0.503	0.495	0.508	0.489	0.474	0.523	0.495	0.480	0.502	0.499																																																																																				
436	0.452	0.465	0.502	0.494	0.508	0.488	0.473	0.522	0.494	0.479	0.501	0.498																																																																																				
437	0.451	0.465	0.501	0.493	0.507	0.487	0.472	0.521	0.493	0.479	0.500	0.497																																																																																				
438	0.450	0.464	0.500	0.492	0.506	0.486	0.471	0.520	0.492	0.478	0.499	0.496																																																																																				
439	0.449	0.463	0.499	0.492	0.505	0.485	0.470	0.519	0.491	0.477	0.498	0.495																																																																																				
440	0.448	0.462	0.498	0.491	0.504	0.485	0.470	0.519	0.491	0.476	0.497	0.494																																																																																				
441	0.448	0.462	0.497	0.490	0.503	0.484	0.469	0.518	0.490	0.475	0.496	0.494																																																																																				
442	0.447	0.461	0.497	0.489	0.502	0.483	0.468	0.517	0.489	0.475	0.496	0.493																																																																																				
443	0.446	0.460	0.496	0.489	0.502	0.482	0.468	0.516	0.489	0.474	0.495	0.492																																																																																				
444	0.446	0.459	0.495	0.488	0.501	0.482	0.467	0.515	0.488	0.473	0.494	0.491																																																																																				
445	0.445	0.459	0.494	0.487	0.500	0.481	0.466	0.515	0.487	0.472	0.493	0.491																																																																																				
446	0.444	0.458	0.494	0.486	0.499	0.480	0.465	0.514	0.486	0.472	0.492	0.490																																																																																				
447	0.444	0.457	0.493	0.486	0.499	0.480	0.465	0.513	0.485	0.471	0.492	0.489																																																																																				
448	0.443	0.457	0.492	0.485	0.498	0.479	0.464	0.512	0.485	0.470	0.491	0.489																																																																																				
449	0.442	0.456	0.492	0.484	0.497	0.478	0.463	0.512	0.484	0.470	0.491	0.488																																																																																				
450	0.442	0.456	0.491	0.484	0.497	0.478	0.463	0.511	0.484	0.469	0.490	0.487																																																																																				
451	0.441	0.455	0.490	0.483	0.496	0.477	0.462	0.510	0.483	0.468	0.489	0.486																																																																																				
452	0.441	0.455	0.490	0.483	0.495	0.476	0.462	0.509	0.482	0.468	0.488	0.486																																																																																				
453	0.440	0.454	0.489	0.482	0.495	0.476	0.461	0.509	0.482	0.467	0.488	0.485																																																																																				
454	0.440	0.454	0.489	0.481	0.494	0.475	0.460	0.508	0.481	0.467	0.487	0.485																																																																																				
455	0.439	0.453	0.488	0.481	0.494	0.475	0.460	0.508	0.481	0.466	0.487	0.484																																																																																				
456	0.438	0.452	0.488	0.480	0.493	0.474	0.459	0.507	0.480	0.466	0.486	0.484																																																																																				
457	0.438	0.452	0.487	0.480	0.493	0.474	0.459	0.506	0.480	0.465	0.486	0.483																																																																																				
458	0.438	0.452	0.487	0.479	0.492	0.473	0.459	0.506	0.479	0.465	0.485	0.483																																																																																				
459	0.437	0.451	0.487	0.479	0.492	0.473	0.458	0.505	0.479	0.465	0.485	0.482																																																																																				
460	0.437	0.451	0.486	0.479	0.492	0.473	0.458	0.505	0.479	0.464	0.485	0.482																																																																																				
461	0.437	0.451	0.486	0.479	0.491	0.472	0.458	0.505	0.478	0.464	0.485	0.482																																																																																				
462	0.437	0.451	0.486	0.479	0.491	0.472	0.458	0.505	0.478	0.464	0.484	0.482																																																																																				
463	0.436	0.451	0.486	0.478	0.491	0.472	0.457	0.505	0.478	0.464	0.484	0.482																																																																																				
464	0.436	0.451	0.486	0.478	0.491	0.472	0.457	0.504	0.478	0.463	0.484	0.481																																																																																				
465	0.436	0.451	0.486	0.478	0.491	0.472	0.457	0.504	0.478	0.464	0.484	0.482																																																																																				
466	0.436	0.451	0.486	0.478	0.491	0.472	0.457	0.504	0.478	0.464	0.484	0.481																																																																																				
467	0.436	0.451	0.486	0.478	0.491	0.472	0.457	0.504	0.478	0.464	0.484	0.481																																																																																				
468	0.437	0.451	0.486	0.478	0.491	0.472	0.457	0.505	0.478	0.464	0.484	0.482																																																																																				
469	0.437	0.451	0.486	0.479	0.491	0.472	0.458	0.505	0.478	0.464	0.484	0.482																																																																																				
470	0.437	0.452	0.487	0.479	0.492	0.473	0.458	0.505	0.479	0.464	0.485	0.482																																																																																				
471	0.437	0.452	0.487	0.480	0.492	0.473	0.458	0.505	0.479	0.465	0.485	0.483																																																																																				
472	0.438	0.453	0.487	0.480	0.493	0.474	0.459	0.506	0.479	0.465	0.486	0.483																																																																																				
473	0.439	0.453	0.488	0.481	0.493	0.474	0.459	0.507	0.480	0.466	0.486	0.484																																																																																				
474	0.439	0.454	0.489	0.481	0.494	0.475	0.460	0.507	0.481	0.466	0.487	0.484																																																																																				
475	0.440	0.455	0.490	0.482	0.495	0.476	0.461	0.508	0.481	0.467	0.488	0.485																																																																																				
476	0.441	0.456	0.491	0.483	0.496	0.476	0.461	0.509	0.482	0.468	0.488	0.486																																																																																				
477	0.442	0.457	0.492	0.484	0.497	0.478	0.463	0.510	0.483	0.469	0.490	0.487																																																																																				
478	0.443	0.458	0.493	0.486	0.498	0.479	0.464	0.511	0.485	0.470	0.491	0.489																																																																																				
479	0.445	0.460	0.495	0.487	0.500	0.480	0.465	0.513	0.486	0.472	0.492	0.490																																																																																				
480	0.446	0.461	0.496	0.489	0.501	0.482	0.467	0.515	0.488	0.473	0.494	0.492																																																																																				
481	0.448	0.463	0.499	0.491	0.503	0.484	0.468	0.517	0.490	0.475	0.496	0.494																																																																																				
482	0.450	0.465	0.501	0.493	0.505	0.486	0.470	0.519	0.492	0.477	0.498	0.496																																																																																				
483	0.452	0.467	0.503	0.495	0.507	0.488	0.472	0.521	0.493	0.479	0.500	0.498																																																																																				
484	0.454	0.469	0.505	0.497	0.509	0.490	0.474	0.523	0.495	0.481	0.502	0.500																																																																																				
485	0.455	0.471	0.507	0.499	0.511	0.492	0.476	0.525	0.497	0.483	0.504	0.502																																																																																				
486	0.458	0.473	0.509	0.502	0.514	0.494	0.478	0.528	0.500	0.485	0.506	0.504																																																																																				
487	0.461	0.476	0.513	0.505	0.517	0.497	0.481	0.531	0.503	0.488	0.509	0.507																																																																																				
488	0.463	0.479	0.516	0.508	0.520	0.500	0.484	0.534	0.506	0.491	0.512	0.510																																																																																				
489	0.466	0.482	0.518	0.511	0.523	0.503	0.486	0.537	0.508	0.493	0.515	0.513																																																																																				
490	0.469	0.485	0.522	0.514	0.527	0.506	0.490	0.540	0.512	0.497	0.518	0.516																																																																																				
491	0.473	0.489	0.526	0.518	0.531	0.510	0.493	0.545	0.516	0.501	0.522	0.520																																																																																				
492	0.476	0.492	0.530	0.522	0.534	0.513	0.496	0.548	0.519	0.504	0.526	0.524																																																																																				
493	0.479	0.496	0.533	0.525	0.538	0.517	0.500	0.552	0.522	0.507	0.529	0.527																																																																																				
494	0.483	0.499	0.537	0.529	0.541	0.521	0.503	0.556	0.526	0.511	0.533	0.531																																																																																				
495	0.488	0.504	0.542	0.534	0.546	0.525	0.508	0.561	0.531	0.515	0.537	0.536																																																																																				
496	0.492	0.509	0.547	0.539	0.551	0.530	0.513	0.566	0.535	0.520	0.542	0.541																																																																																				
497	0.497	0.514	0.552	0.544	0.556	0.535	0.517	0.571	0.540	0.525	0.547	0.545																																																																																				
498	0.500	0.517	0.556	0.548	0.560	0.538	0.520	0.575	0.543	0.528	0.551	0.549																																																																																				
499	0.504	0.521	0.560	0.552	0.564	0.542	0.524	0.578	0.547	0.532	0.554	0.553																																																																																				
500	0.507	0.525	0.564	0.556	0.568	0.546	0.528	0.583	0.551	0.536	0.558	0.557																																																																																				
501	0.511	0.529	0.568	0.560	0.572	0.550	0.531	0.587	0.555	0.540	0.562	0.561																																																																																				
502	0.515	0.533	0.573	0.564	0.576	0.554	0.535	0.591	0.559	0.543	0.566	0.565																																																																																				
503	0.519	0.537	0.577	0.568	0.580	0.558	0.539	0.595	0.563	0.547	0.570	0.569																																																																																				
504	0.522	0.541	0.581	0.572	0.584	0.561	0.542	0.599	0.566	0.551	0.574	0.572																																																																																				
505	0.525	0.544	0.584	0.576	0.587	0.565	0.546	0.602	0.569	0.554	0.577	0.576																																																																																				
506	0.529	0.547	0.588	0.579	0.590	0.568	0.549	0.606	0.573	0.557	0.580	0.579																																																																																				
507	0.531	0.550	0.591	0.582	0.593	0.571	0.551	0.609	0.575	0.560	0.583	0.582																																																																																				
508	0.534	0.553	0.594	0.585	0.595	0.573	0.553	0.611	0.577	0.562	0.585	0.584																																																																																				
509	0.536	0.555	0.596	0.587	0.598	0.576	0.556	0.613	0.580	0.564	0.587	0.586																																																																																				
510	0.538	0.557	0.598	0.590	0.600	0.578	0.558	0.615	0.581	0.566	0.589	0.588																																																																																				
511	0.539	0.559	0.600	0.591	0.601	0.579	0.559	0.617	0.583	0.568	0.591	0.590																																																																																				
512	0.540	0.560	0.601	0.593	0.602	0.580	0.560	0.618	0.584	0.569	0.591	0.591																																																																																				
513	0.541	0.561	0.602	0.594	0.603	0.581	0.561	0.619	0.584	0.569	0.592	0.591																																																																																				
514	0.542	0.562	0.603	0.594	0.603	0.581	0.561	0.619	0.585	0.570	0.592	0.592																																																																																				
515	0.542	0.562	0.603	0.595	0.603	0.581	0.561	0.619	0.584	0.570	0.592	0.592																																																																																				
516	0.541	0.562	0.603	0.594	0.603	0.581	0.561	0.618	0.584	0.569	0.592	0.591																																																																																				
517	0.541	0.562	0.603	0.594	0.602	0.581	0.560	0.617	0.583	0.569	0.591	0.591																																																																																				
518	0.540	0.561	0.602	0.594	0.601	0.580	0.559	0.617	0.582	0.568	0.590	0.590																																																																																				
519	0.539	0.560	0.601	0.593	0.600	0.579	0.558	0.615	0.581	0.567	0.589	0.589																																																																																				
520	0.538	0.560	0.600	0.592	0.599	0.578	0.557	0.614	0.580	0.566	0.588	0.588																																																																																				
521	0.537	0.558	0.599	0.590	0.597	0.576	0.556	0.612	0.578	0.564	0.586	0.586																																																																																				
522	0.535	0.557	0.597	0.588	0.595	0.575	0.554	0.610	0.576	0.563	0.584	0.584																																																																																				
523	0.533	0.555	0.595	0.586	0.593	0.572	0.552	0.608	0.574	0.560	0.582	0.582																																																																																				
524	0.531	0.553	0.593	0.584	0.590	0.570	0.549	0.605	0.571	0.558	0.579	0.579																																																																																				
525	0.528	0.550	0.590	0.582	0.588	0.567	0.547	0.602	0.568	0.555	0.577	0.577																																																																																				
526	0.526	0.548	0.587	0.579	0.584	0.565	0.544	0.599	0.566	0.552	0.574	0.574																																																																																				
527	0.523	0.545	0.584	0.576	0.581	0.562	0.542	0.596	0.562	0.550	0.571	0.571																																																																																				
528	0.521	0.543	0.582	0.574	0.579	0.560	0.539	0.593	0.560	0.547	0.568	0.568																																																																																				
529	0.518	0.541	0.579	0.571	0.576	0.557	0.537	0.591	0.557	0.545	0.566	0.566																																																																																				
530	0.516	0.538	0.577	0.569	0.574	0.555	0.535	0.588	0.555	0.542	0.563	0.563																																																																																				
531	0.513	0.535	0.574	0.566	0.570	0.551	0.532	0.584	0.552	0.539	0.560	0.560																																																																																				
532	0.509	0.531	0.569	0.561	0.566	0.547	0.528	0.580	0.547	0.535	0.555	0.556																																																																																				
533	0.506	0.528	0.566	0.558	0.562	0.544	0.524	0.576	0.544	0.532	0.552	0.552																																																																																				
534	0.502	0.524	0.562	0.554	0.558	0.541	0.521	0.572	0.540	0.528	0.549	0.549																																																																																				
535	0.499	0.521	0.558	0.550	0.554	0.537	0.517	0.568	0.536	0.525	0.545	0.545																																																																																				
536	0.495	0.517	0.554	0.546	0.550	0.533	0.514	0.564	0.532	0.521	0.541	0.541																																																																																				
537	0.491	0.513	0.550	0.542	0.546	0.529	0.510	0.559	0.528	0.517	0.536	0.537																																																																																				
538	0.487	0.508	0.545	0.538	0.541	0.525	0.506	0.555	0.524	0.512	0.532	0.533																																																																																				
539	0.483	0.504	0.541	0.533	0.537	0.521	0.502	0.550	0.520	0.509	0.528	0.528																																																																																				
540	0.478	0.499	0.536	0.529	0.532	0.516	0.497	0.545	0.515	0.504	0.523	0.523																																																																																				
541	0.474	0.495	0.532	0.524	0.527	0.512	0.493	0.540	0.511	0.500	0.519	0.519																																																																																				
542	0.471	0.492	0.528	0.520	0.523	0.508	0.489	0.536	0.507	0.496	0.515	0.515																																																																																				
543	0.467	0.488	0.524	0.517	0.519	0.504	0.486	0.532	0.503	0.492	0.511	0.512																																																																																				
544	0.463	0.483	0.518	0.512	0.514	0.499	0.482	0.527	0.498	0.488	0.506	0.507																																																																																				
545	0.457	0.478	0.513	0.506	0.509	0.494	0.477	0.522	0.493	0.483	0.501	0.502																																																																																				
546	0.453	0.473	0.507	0.501	0.504	0.489	0.472	0.516	0.488	0.478	0.496	0.497																																																																																				
547	0.448	0.468	0.503	0.496	0.499	0.485	0.467	0.511	0.483	0.473	0.491	0.492																																																																																				
548	0.443	0.463	0.497	0.491	0.494	0.480	0.463	0.506	0.479	0.469	0.487	0.487																																																																																				
549	0.439	0.458	0.492	0.486	0.489	0.475	0.459	0.501	0.474	0.464	0.482	0.482																																																																																				
550	0.433	0.453	0.486	0.480	0.483	0.470	0.453	0.495	0.468	0.458	0.476	0.477																																																																																				
551	0.429	0.447	0.481	0.475	0.478	0.464	0.448	0.489	0.464	0.454	0.471	0.472																																																																																				
552	0.423	0.442	0.475	0.469	0.472	0.459	0.443	0.483	0.458	0.448	0.466	0.466																																																																																				
553	0.418	0.436	0.469	0.463	0.466	0.454	0.438	0.478	0.453	0.443	0.461	0.461																																																																																				
554	0.412	0.430	0.463	0.457	0.460	0.448	0.433	0.472	0.447	0.438	0.455	0.455																																																																																				
555	0.408	0.425	0.458	0.452	0.455	0.443	0.428	0.466	0.442	0.432	0.450	0.450																																																																																				
556	0.402	0.419	0.451	0.445	0.449	0.437	0.422	0.460	0.436	0.427	0.444	0.444																																																																																				
557	0.397	0.414	0.445	0.440	0.443	0.431	0.417	0.454	0.431	0.421	0.439	0.439																																																																																				
558	0.391	0.407	0.438	0.433	0.436	0.425	0.411	0.447	0.424	0.415	0.432	0.432																																																																																				
559	0.385	0.401	0.432	0.426	0.430	0.419	0.405	0.441	0.418	0.409	0.426	0.426																																																																																				
560	0.379	0.395	0.425	0.420	0.423	0.413	0.399	0.434	0.412	0.403	0.420	0.420																																																																																				
561	0.373	0.389	0.419	0.413	0.417	0.407	0.393	0.428	0.406	0.398	0.414	0.414																																																																																				
562	0.367	0.383	0.413	0.407	0.411	0.401	0.388	0.422	0.401	0.392	0.408	0.408																																																																																				
563	0.363	0.378	0.408	0.403	0.407	0.397	0.384	0.417	0.396	0.388	0.404	0.403																																																																																				
564	0.357	0.372	0.402	0.397	0.401	0.391	0.378	0.411	0.391	0.382	0.398	0.397																																																																																				
565	0.351	0.366	0.395	0.390	0.394	0.384	0.372	0.404	0.384	0.376	0.391	0.391																																																																																				
566	0.346	0.360	0.389	0.384	0.389	0.379	0.366	0.398	0.379	0.370	0.386	0.385																																																																																				
567	0.340	0.355	0.383	0.378	0.383	0.373	0.361	0.392	0.373	0.364	0.380	0.380																																																																																				
568	0.336	0.349	0.377	0.372	0.377	0.367	0.356	0.386	0.368	0.359	0.375	0.374																																																																																				
569	0.330	0.344	0.371	0.366	0.371	0.362	0.350	0.380	0.362	0.353	0.369	0.368																																																																																				
570	0.325	0.338	0.365	0.360	0.366	0.356	0.345	0.374	0.357	0.348	0.363	0.363																																																																																				
571	0.319	0.332	0.359	0.354	0.360	0.350	0.339	0.368	0.351	0.343	0.357	0.356																																																																																				
572	0.314	0.327	0.353	0.348	0.354	0.345	0.333	0.362	0.345	0.337	0.351	0.351																																																																																				
573	0.309	0.322	0.347	0.343	0.348	0.339	0.328	0.356	0.340	0.332	0.346	0.345																																																																																				
574	0.304	0.316	0.342	0.337	0.343	0.334	0.323	0.351	0.335	0.327	0.341	0.340																																																																																				
575	0.299	0.311	0.336	0.332	0.338	0.329	0.318	0.345	0.330	0.321	0.336	0.335																																																																																				
576	0.294	0.307	0.332	0.327	0.333	0.324	0.314	0.340	0.325	0.317	0.331	0.330																																																																																				
577	0.290	0.302	0.327	0.322	0.328	0.320	0.309	0.335	0.321	0.312	0.326	0.326																																																																																				
578	0.285	0.297	0.321	0.317	0.323	0.314	0.304	0.330	0.316	0.307	0.321	0.320																																																																																				
579	0.280	0.292	0.316	0.311	0.318	0.309	0.299	0.324	0.310	0.302	0.316	0.315																																																																																				
580	0.275	0.287	0.310	0.306	0.313	0.304	0.294	0.319	0.305	0.297	0.311	0.309																																																																																				
581	0.271	0.282	0.306	0.301	0.308	0.299	0.290	0.314	0.301	0.292	0.306	0.305																																																																																				
582	0.267	0.278	0.301	0.296	0.303	0.295	0.285	0.309	0.296	0.288	0.301	0.300																																																																																				
583	0.262	0.274	0.296	0.291	0.299	0.290	0.281	0.305	0.292	0.283	0.297	0.295																																																																																				
584	0.258	0.269	0.291	0.287	0.294	0.285	0.276	0.300	0.287	0.279	0.292	0.291																																																																																				
585	0.254	0.265	0.287	0.282	0.290	0.281	0.272	0.295	0.283	0.275	0.288	0.286																																																																																				
586	0.250	0.260	0.282	0.278	0.285	0.277	0.268	0.290	0.279	0.270	0.283	0.282																																																																																				
587	0.246	0.256	0.278	0.273	0.281	0.272	0.264	0.286	0.275	0.266	0.279	0.278																																																																																				
588	0.242	0.253	0.274	0.269	0.277	0.269	0.260	0.282	0.271	0.262	0.275	0.274																																																																																				
589	0.239	0.249	0.270	0.265	0.273	0.265	0.257	0.278	0.267	0.259	0.271	0.270																																																																																				
590	0.235	0.245	0.266	0.262	0.269	0.261	0.253	0.274	0.264	0.255	0.268	0.266																																																																																				
591	0.232	0.242	0.262	0.258	0.266	0.258	0.249	0.270	0.260	0.252	0.264	0.262																																																																																				
592	0.229	0.239	0.259	0.255	0.263	0.255	0.246	0.267	0.257	0.248	0.261	0.259																																																																																				
593	0.226	0.235	0.255	0.251	0.259	0.251	0.243	0.264	0.254	0.245	0.258	0.256																																																																																				
594	0.223	0.232	0.252	0.248	0.256	0.248	0.240	0.260	0.251	0.242	0.254	0.253																																																																																				
595	0.219	0.229	0.248	0.244	0.253	0.244	0.237	0.256	0.247	0.239	0.251	0.249																																																																																				
596	0.217	0.226	0.245	0.241	0.250	0.241	0.234	0.253	0.244	0.236	0.248	0.246																																																																																				
597	0.214	0.224	0.243	0.238	0.247	0.239	0.232	0.251	0.242	0.233	0.245	0.243																																																																																				
598	0.212	0.221	0.240	0.236	0.244	0.236	0.229	0.248	0.239	0.231	0.243	0.241																																																																																				
599	0.209	0.218	0.237	0.233	0.242	0.234	0.227	0.245	0.237	0.228	0.240	0.238																																																																																				
600	0.207	0.215	0.234	0.230	0.239	0.231	0.224	0.242	0.234	0.225	0.237	0.235																																																																																				
601	0.204	0.213	0.231	0.227	0.236	0.228	0.221	0.239	0.231	0.222	0.234	0.232																																																																																				
602	0.201	0.210	0.228	0.224	0.233	0.225	0.218	0.236	0.228	0.220	0.231	0.229																																																																																				
603	0.199	0.208	0.225	0.222	0.231	0.223	0.216	0.234	0.226	0.218	0.229	0.227																																																																																				
604	0.197	0.206	0.223	0.219	0.229	0.221	0.214	0.231	0.224	0.215	0.227	0.225																																																																																				
605	0.196	0.204	0.221	0.217	0.227	0.219	0.212	0.229	0.222	0.213	0.225	0.223																																																																																				
606	0.194	0.202	0.219	0.215	0.224	0.216	0.210	0.227	0.220	0.211	0.223	0.221																																																																																				
607	0.192	0.200	0.217	0.213	0.223	0.215	0.208	0.225	0.218	0.209	0.221	0.219																																																																																				
608	0.190	0.198	0.215	0.211	0.220	0.212	0.206	0.223	0.216	0.207	0.218	0.216																																																																																				
609	0.188	0.196	0.212	0.208	0.218	0.210	0.204	0.221	0.214	0.205	0.216	0.214																																																																																				
610	0.186	0.194	0.211	0.207	0.217	0.209	0.203	0.219	0.212	0.204	0.215	0.213																																																																																				
611	0.185	0.193	0.209	0.205	0.215	0.207	0.201	0.217	0.211	0.202	0.213	0.211																																																																																				
612	0.183	0.191	0.207	0.203	0.213	0.205	0.199	0.215	0.209	0.200	0.212	0.209																																																																																				
613	0.182	0.189	0.205	0.201	0.211	0.204	0.198	0.213	0.207	0.199	0.210	0.207																																																																																				
614	0.180	0.187	0.203	0.200	0.209	0.202	0.196	0.211	0.206	0.197	0.208	0.206																																																																																				
615	0.179	0.186	0.202	0.198	0.208	0.200	0.195	0.210	0.204	0.195	0.206	0.204																																																																																				
616	0.177	0.184	0.200	0.197	0.207	0.199	0.193	0.208	0.203	0.194	0.205	0.203																																																																																				
617	0.176	0.183	0.199	0.195	0.205	0.197	0.192	0.207	0.201	0.193	0.203	0.201																																																																																				
618	0.174	0.181	0.197	0.193	0.204	0.196	0.190	0.205	0.200	0.191	0.202	0.200																																																																																				
619	0.173	0.180	0.196	0.192	0.202	0.195	0.189	0.204	0.199	0.190	0.201	0.198																																																																																				
620	0.172	0.179	0.194	0.191	0.201	0.193	0.188	0.202	0.197	0.188	0.199	0.197																																																																																				
621	0.171	0.177	0.193	0.189	0.200	0.192	0.186	0.201	0.196	0.187	0.198	0.195																																																																																				
622	0.170	0.176	0.192	0.188	0.198	0.191	0.185	0.200	0.194	0.186	0.197	0.194																																																																																				
623	0.168	0.175	0.190	0.186	0.197	0.189	0.184	0.198	0.193	0.185	0.196	0.193																																																																																				
624	0.167	0.174	0.189	0.185	0.196	0.188	0.183	0.197	0.192	0.183	0.195	0.192																																																																																				
625	0.167	0.173	0.188	0.184	0.195	0.187	0.182	0.196	0.191	0.183	0.194	0.191																																																																																				
626	0.166	0.172	0.187	0.183	0.194	0.186	0.181	0.195	0.190	0.181	0.193	0.190																																																																																				
627	0.165	0.171	0.186	0.182	0.193	0.185	0.180	0.194	0.189	0.181	0.192	0.189																																																																																				
628	0.164	0.170	0.185	0.181	0.192	0.184	0.179	0.193	0.188	0.180	0.191	0.188																																																																																				
629	0.163	0.169	0.184	0.180	0.191	0.183	0.178	0.192	0.188	0.179	0.190	0.187																																																																																				
630	0.162	0.168	0.183	0.179	0.190	0.183	0.178	0.191	0.187	0.178	0.189	0.186																																																																																				
631	0.162	0.168	0.182	0.178	0.190	0.182	0.177	0.190	0.186	0.177	0.188	0.185																																																																																				
632	0.161	0.167	0.181	0.177	0.189	0.181	0.176	0.190	0.185	0.176	0.187	0.184																																																																																				
633	0.160	0.166	0.180	0.177	0.188	0.180	0.175	0.189	0.184	0.175	0.186	0.184																																																																																				
634	0.160	0.165	0.180	0.176	0.187	0.180	0.175	0.188	0.184	0.175	0.186	0.183																																																																																				
635	0.159	0.165	0.179	0.175	0.187	0.179	0.174	0.187	0.183	0.174	0.185	0.182																																																																																				
636	0.158	0.164	0.178	0.174	0.186	0.178	0.173	0.187	0.182	0.174	0.184	0.182																																																																																				
637	0.158	0.163	0.177	0.174	0.185	0.178	0.173	0.186	0.182	0.173	0.184	0.181																																																																																				
638	0.157	0.163	0.177	0.173	0.185	0.177	0.172	0.185	0.181	0.172	0.183	0.180																																																																																				
639	0.157	0.162	0.176	0.172	0.184	0.176	0.172	0.185	0.181	0.172	0.183	0.180																																																																																				
640	0.156	0.161	0.175	0.172	0.184	0.176	0.171	0.184	0.180	0.171	0.182	0.179																																																																																				
641	0.156	0.161	0.175	0.171	0.183	0.175	0.171	0.184	0.180	0.171	0.182	0.179																																																																																				
642	0.155	0.161	0.174	0.171	0.183	0.175	0.170	0.183	0.179	0.170	0.181	0.178																																																																																				
643	0.155	0.160	0.174	0.170	0.182	0.174	0.170	0.183	0.179	0.170	0.181	0.178																																																																																				
644	0.154	0.160	0.173	0.170	0.182	0.174	0.169	0.182	0.178	0.169	0.180	0.177																																																																																				
645	0.154	0.159	0.173	0.169	0.181	0.173	0.169	0.182	0.178	0.169	0.180	0.177																																																																																				
646	0.154	0.159	0.173	0.169	0.181	0.173	0.169	0.181	0.178	0.169	0.180	0.177																																																																																				
647	0.154	0.159	0.172	0.169	0.181	0.173	0.168	0.181	0.177	0.168	0.179	0.176																																																																																				
648	0.153	0.158	0.172	0.168	0.181	0.173	0.168	0.181	0.177	0.168	0.179	0.176																																																																																				
649	0.153	0.158	0.171	0.168	0.180	0.172	0.168	0.180	0.177	0.168	0.179	0.176																																																																																				
650	0.153	0.158	0.171	0.168	0.180	0.172	0.168	0.180	0.177	0.167	0.178	0.175																																																																																				
651	0.153	0.157	0.171	0.167	0.180	0.172	0.167	0.180	0.176	0.167	0.178	0.175																																																																																				
652	0.152	0.157	0.171	0.167	0.180	0.172	0.167	0.180	0.176	0.167	0.178	0.175																																																																																				
653	0.152	0.157	0.170	0.167	0.180	0.171	0.167	0.180	0.176	0.167	0.178	0.175																																																																																				
654	0.152	0.157	0.170	0.167	0.179	0.171	0.167	0.179	0.176	0.167	0.178	0.175																																																																																				
655	0.152	0.156	0.170	0.166	0.179	0.171	0.167	0.179	0.176	0.166	0.177	0.174																																																																																				
656	0.152	0.157	0.170	0.166	0.179	0.171	0.167	0.179	0.176	0.166	0.177	0.174																																																																																				
657	0.152	0.157	0.170	0.166	0.179	0.171	0.167	0.179	0.176	0.166	0.177	0.174																																																																																				
658	0.152	0.156	0.170	0.166	0.179	0.171	0.166	0.179	0.176	0.166	0.177	0.174																																																																																				
659	0.152	0.156	0.169	0.166	0.179	0.171	0.166	0.179	0.176	0.166	0.177	0.174																																																																																				
660	0.152	0.156	0.169	0.166	0.179	0.171	0.167	0.179	0.176	0.166	0.177	0.174																																																																																				
661	0.152	0.156	0.169	0.166	0.180	0.171	0.167	0.179	0.176	0.166	0.177	0.174																																																																																				
662	0.153	0.156	0.169	0.166	0.180	0.171	0.167	0.179	0.176	0.166	0.178	0.174																																																																																				
663	0.152	0.156	0.170	0.166	0.180	0.171	0.167	0.180	0.176	0.166	0.178	0.174																																																																																				
664	0.153	0.156	0.170	0.166	0.180	0.171	0.167	0.180	0.176	0.166	0.178	0.174																																																																																				
665	0.153	0.157	0.170	0.166	0.180	0.171	0.167	0.180	0.176	0.167	0.178	0.175																																																																																				
666	0.153	0.157	0.170	0.166	0.180	0.171	0.167	0.180	0.176	0.167	0.178	0.175																																																																																				
667	0.153	0.157	0.170	0.166	0.180	0.172	0.167	0.180	0.177	0.167	0.178	0.175																																																																																				
668	0.154	0.157	0.170	0.167	0.181	0.172	0.168	0.180	0.177	0.167	0.179	0.175																																																																																				
669	0.154	0.157	0.170	0.167	0.181	0.172	0.168	0.181	0.177	0.167	0.179	0.175																																																																																				
670	0.154	0.157	0.170	0.167	0.181	0.172	0.168	0.181	0.178	0.167	0.179	0.176																																																																																				
671	0.155	0.158	0.171	0.167	0.182	0.172	0.168	0.181	0.178	0.168	0.179	0.176																																																																																				
672	0.155	0.158	0.171	0.168	0.182	0.173	0.169	0.182	0.178	0.168	0.180	0.176																																																																																				
673	0.155	0.158	0.171	0.168	0.183	0.173	0.169	0.182	0.179	0.168	0.180	0.177																																																																																				
674	0.156	0.159	0.172	0.168	0.183	0.174	0.169	0.183	0.179	0.169	0.181	0.177																																																																																				
675	0.156	0.159	0.172	0.169	0.184	0.174	0.170	0.183	0.180	0.169	0.181	0.177																																																																																				
676	0.157	0.159	0.173	0.169	0.184	0.174	0.170	0.184	0.180	0.169	0.181	0.178																																																																																				
677	0.157	0.160	0.173	0.170	0.185	0.175	0.171	0.184	0.181	0.170	0.182	0.178																																																																																				
678	0.158	0.160	0.173	0.170	0.185	0.175	0.171	0.185	0.181	0.170	0.182	0.179																																																																																				
679	0.159	0.161	0.174	0.171	0.186	0.176	0.172	0.185	0.182	0.171	0.183	0.179																																																																																				
680	0.159	0.161	0.174	0.171	0.186	0.176	0.172	0.186	0.182	0.172	0.184	0.180																																																																																				
681	0.160	0.162	0.175	0.172	0.187	0.177	0.173	0.187	0.183	0.172	0.184	0.181																																																																																				
682	0.161	0.162	0.176	0.172	0.188	0.177	0.173	0.187	0.184	0.172	0.185	0.181																																																																																				
683	0.161	0.163	0.176	0.173	0.189	0.178	0.174	0.188	0.185	0.173	0.186	0.182																																																																																				
684	0.162	0.164	0.177	0.173	0.189	0.179	0.175	0.189	0.185	0.174	0.186	0.183																																																																																				
685	0.163	0.165	0.178	0.174	0.190	0.180	0.175	0.190	0.186	0.174	0.187	0.183																																																																																				
686	0.164	0.165	0.179	0.175	0.191	0.181	0.177	0.191	0.187	0.175	0.188	0.184																																																																																				
687	0.165	0.166	0.179	0.176	0.192	0.181	0.177	0.192	0.188	0.176	0.189	0.185																																																																																				
688	0.166	0.167	0.180	0.177	0.193	0.182	0.178	0.193	0.189	0.177	0.190	0.186																																																																																				
689	0.167	0.168	0.181	0.178	0.194	0.183	0.179	0.194	0.190	0.178	0.191	0.187																																																																																				
690	0.168	0.169	0.182	0.179	0.195	0.184	0.180	0.195	0.191	0.179	0.192	0.188																																																																																				
691	0.169	0.170	0.183	0.179	0.197	0.185	0.181	0.196	0.192	0.180	0.193	0.189																																																																																				
692	0.170	0.171	0.184	0.180	0.198	0.186	0.182	0.197	0.193	0.181	0.194	0.190																																																																																				
693	0.171	0.172	0.185	0.181	0.199	0.187	0.183	0.198	0.194	0.182	0.195	0.191																																																																																				
694	0.172	0.173	0.186	0.183	0.200	0.189	0.184	0.200	0.195	0.183	0.196	0.192																																																																																				
695	0.173	0.174	0.188	0.184	0.201	0.190	0.185	0.201	0.197	0.184	0.197	0.193																																																																																				
696	0.175	0.175	0.189	0.185	0.203	0.191	0.187	0.202	0.198	0.185	0.199	0.194																																																																																				
697	0.176	0.176	0.190	0.186	0.204	0.192	0.188	0.204	0.199	0.187	0.200	0.196																																																																																				
698	0.178	0.178	0.191	0.187	0.205	0.193	0.189	0.205	0.201	0.188	0.201	0.197																																																																																				
699	0.179	0.179	0.193	0.189	0.207	0.195	0.191	0.207	0.202	0.189	0.202	0.198																																																																																				
700	0.180	0.180	0.194	0.190	0.208	0.196	0.192	0.208	0.203	0.190	0.204	0.199																																																																																				
701	0.182	0.182	0.196	0.191	0.210	0.197	0.193	0.210	0.205	0.191	0.205	0.201																																																																																				
702	0.184	0.183	0.197	0.193	0.212	0.199	0.195	0.211	0.206	0.193	0.207	0.202																																																																																				
703	0.185	0.185	0.199	0.195	0.214	0.201	0.196	0.213	0.208	0.195	0.209	0.204																																																																																				
704	0.187	0.186	0.201	0.196	0.216	0.202	0.198	0.215	0.210	0.196	0.211	0.206																																																																																				
705	0.189	0.188	0.202	0.198	0.217	0.204	0.200	0.217	0.212	0.198	0.212	0.207																																																																																				
706	0.191	0.190	0.204	0.200	0.219	0.206	0.202	0.219	0.213	0.199	0.214	0.209																																																																																				
707	0.193	0.191	0.206	0.202	0.222	0.208	0.203	0.221	0.216	0.201	0.216	0.211																																																																																				
708	0.195	0.193	0.208	0.203	0.224	0.210	0.205	0.223	0.218	0.203	0.218	0.213																																																																																				
709	0.197	0.195	0.210	0.205	0.226	0.212	0.207	0.225	0.220	0.205	0.220	0.215																																																																																				
710	0.199	0.197	0.212	0.207	0.228	0.214	0.209	0.227	0.222	0.206	0.222	0.217																																																																																				
711	0.202	0.199	0.214	0.209	0.231	0.216	0.211	0.230	0.224	0.208	0.224	0.219																																																																																				
712	0.203	0.201	0.216	0.211	0.233	0.218	0.213	0.232	0.226	0.210	0.226	0.221																																																																																				
713	0.206	0.203	0.219	0.213	0.235	0.220	0.215	0.234	0.229	0.212	0.229	0.224																																																																																				
714	0.208	0.205	0.221	0.215	0.238	0.223	0.218	0.236	0.231	0.215	0.231	0.226																																																																																				
715	0.211	0.208	0.224	0.218	0.241	0.225	0.220	0.239	0.234	0.217	0.234	0.228																																																																																				
716	0.213	0.210	0.226	0.220	0.243	0.227	0.222	0.241	0.236	0.219	0.236	0.230																																																																																				
717	0.216	0.212	0.229	0.223	0.246	0.230	0.225	0.244	0.239	0.222	0.238	0.233																																																																																				
718	0.219	0.215	0.231	0.225	0.249	0.232	0.227	0.247	0.241	0.224	0.240	0.235																																																																																				
719	0.221	0.217	0.234	0.228	0.252	0.235	0.230	0.250	0.244	0.226	0.243	0.238																																																																																				
720	0.224	0.220	0.236	0.230	0.254	0.237	0.232	0.253	0.246	0.229	0.246	0.240																																																																																				
721	0.227	0.223	0.239	0.233	0.257	0.240	0.235	0.256	0.249	0.231	0.249	0.243																																																																																				
722	0.230	0.226	0.242	0.236	0.261	0.243	0.238	0.259	0.252	0.234	0.252	0.246																																																																																				
723	0.234	0.229	0.245	0.239	0.264	0.246	0.241	0.262	0.255	0.237	0.255	0.248																																																																																				
724	0.237	0.232	0.248	0.242	0.267	0.249	0.243	0.265	0.258	0.240	0.257	0.251																																																																																				
725	0.240	0.235	0.252	0.245	0.271	0.252	0.246	0.269	0.262	0.243	0.261	0.254																																																																																				
726	0.243	0.238	0.255	0.248	0.274	0.255	0.249	0.272	0.265	0.246	0.264	0.257																																																																																				
727	0.247	0.241	0.258	0.251	0.278	0.259	0.253	0.276	0.268	0.249	0.267	0.260																																																																																				
728	0.251	0.245	0.262	0.255	0.282	0.262	0.257	0.280	0.272	0.252	0.271	0.264																																																																																				
729	0.255	0.249	0.266	0.259	0.286	0.266	0.260	0.284	0.276	0.256	0.274	0.267																																																																																				
730	0.259	0.252	0.270	0.262	0.290	0.269	0.264	0.288	0.280	0.259	0.278	0.271																																																																																				
731	0.263	0.256	0.274	0.266	0.294	0.273	0.268	0.292	0.284	0.263	0.282	0.275																																																																																				
732	0.267	0.260	0.278	0.270	0.298	0.277	0.271	0.296	0.287	0.266	0.285	0.278																																																																																				
733	0.272	0.264	0.282	0.274	0.303	0.281	0.275	0.301	0.292	0.270	0.289	0.282																																																																																				
734	0.276	0.268	0.286	0.278	0.307	0.285	0.279	0.305	0.295	0.274	0.293	0.286																																																																																				
735	0.280	0.272	0.290	0.282	0.311	0.289	0.283	0.310	0.300	0.278	0.297	0.290																																																																																				
736	0.285	0.277	0.295	0.287	0.316	0.293	0.287	0.315	0.304	0.282	0.302	0.294																																																																																				
737	0.290	0.281	0.300	0.291	0.321	0.298	0.291	0.320	0.309	0.286	0.306	0.298																																																																																				
738	0.295	0.286	0.304	0.295	0.326	0.302	0.296	0.325	0.313	0.290	0.311	0.302																																																																																				
739	0.299	0.291	0.309	0.300	0.331	0.306	0.300	0.329	0.318	0.294	0.315	0.306																																																																																				
740	0.304	0.295	0.314	0.304	0.336	0.311	0.304	0.334	0.322	0.298	0.319	0.311																																																																																				
741	0.309	0.300	0.318	0.309	0.341	0.315	0.309	0.339	0.327	0.302	0.324	0.315																																																																																				
742	0.315	0.305	0.323	0.314	0.346	0.320	0.314	0.345	0.332	0.307	0.328	0.320																																																																																				
743	0.320	0.310	0.329	0.319	0.351	0.325	0.319	0.350	0.337	0.312	0.333	0.324																																																																																				
744	0.325	0.315	0.334	0.324	0.357	0.330	0.324	0.356	0.342	0.316	0.338	0.329																																																																																				
745	0.331	0.320	0.340	0.329	0.363	0.335	0.329	0.362	0.348	0.321	0.344	0.334																																																																																				
746	0.337	0.326	0.345	0.335	0.369	0.341	0.334	0.367	0.353	0.326	0.349	0.339																																																																																				
747	0.343	0.332	0.351	0.340	0.375	0.346	0.340	0.374	0.359	0.332	0.354	0.344																																																																																				
748	0.349	0.337	0.357	0.346	0.381	0.352	0.345	0.380	0.365	0.337	0.360	0.350																																																																																				
749	0.356	0.343	0.363	0.352	0.388	0.358	0.351	0.386	0.371	0.342	0.366	0.355																																																																																				
750	0.362	0.349	0.369	0.358	0.394	0.364	0.357	0.393	0.377	0.348	0.372	0.361																																																																																				
751	0.368	0.356	0.376	0.364	0.401	0.369	0.363	0.400	0.383	0.353	0.378	0.367																																																																																				
752	0.375	0.361	0.382	0.370	0.407	0.375	0.368	0.406	0.389	0.359	0.383	0.372																																																																																				
753	0.381	0.368	0.388	0.376	0.414	0.381	0.374	0.413	0.395	0.364	0.389	0.378																																																																																				
754	0.388	0.374	0.395	0.382	0.421	0.388	0.380	0.420	0.402	0.370	0.396	0.384																																																																																				
755	0.396	0.381	0.402	0.389	0.428	0.394	0.387	0.427	0.409	0.377	0.402	0.390																																																																																				
756	0.403	0.388	0.409	0.396	0.435	0.401	0.394	0.434	0.416	0.383	0.409	0.397																																																																																				
757	0.410	0.395	0.416	0.403	0.443	0.408	0.400	0.442	0.423	0.390	0.416	0.403																																																																																				
758	0.419	0.404	0.425	0.411	0.452	0.416	0.409	0.451	0.431	0.398	0.424	0.412																																																																																				
759	0.427	0.411	0.432	0.418	0.460	0.423	0.416	0.459	0.439	0.404	0.431	0.418																																																																																				
760	0.435	0.419	0.441	0.426	0.469	0.431	0.423	0.468	0.447	0.412	0.439	0.426																																																																																				
761	0.445	0.428	0.450	0.435	0.478	0.439	0.432	0.477	0.456	0.420	0.448	0.434																																																																																				
762	0.454	0.436	0.459	0.444	0.487	0.448	0.440	0.487	0.465	0.428	0.456	0.443																																																																																				
763	0.462	0.444	0.467	0.452	0.496	0.456	0.448	0.495	0.472	0.435	0.464	0.450																																																																																				
764	0.470	0.452	0.474	0.459	0.503	0.463	0.455	0.503	0.480	0.442	0.471	0.457																																																																																				
765	0.476	0.458	0.481	0.465	0.511	0.469	0.462	0.510	0.486	0.448	0.478	0.463																																																																																				
766	0.485	0.466	0.489	0.473	0.519	0.477	0.469	0.519	0.494	0.456	0.486	0.471																																																																																				
767	0.494	0.475	0.499	0.482	0.529	0.486	0.478	0.529	0.504	0.464	0.495	0.480																																																																																				
768	0.505	0.485	0.509	0.492	0.539	0.496	0.488	0.540	0.514	0.473	0.504	0.489																																																																																				
769	0.515	0.495	0.519	0.502	0.550	0.505	0.497	0.550	0.524	0.482	0.514	0.499																																																																																				
770	0.525	0.504	0.529	0.512	0.561	0.515	0.507	0.561	0.534	0.492	0.524	0.508																																																																																				
771	0.535	0.514	0.539	0.521	0.571	0.525	0.516	0.571	0.543	0.501	0.534	0.517																																																																																				
772	0.545	0.524	0.548	0.531	0.581	0.534	0.526	0.582	0.553	0.510	0.543	0.527																																																																																				
773	0.556	0.534	0.559	0.541	0.593	0.544	0.536	0.593	0.564	0.520	0.554	0.537																																																																																				
774	0.567	0.544	0.570	0.551	0.603	0.554	0.546	0.605	0.575	0.529	0.564	0.547																																																																																				
775	0.577	0.554	0.581	0.562	0.615	0.565	0.557	0.616	0.585	0.540	0.575	0.557																																																																																				
776	0.588	0.565	0.592	0.573	0.626	0.576	0.567	0.628	0.596	0.550	0.586	0.568																																																																																				
777	0.600	0.576	0.603	0.584	0.638	0.586	0.578	0.640	0.608	0.560	0.597	0.578																																																																																				
778	0.612	0.587	0.615	0.596	0.650	0.598	0.590	0.653	0.620	0.572	0.609	0.590																																																																																				
779	0.624	0.599	0.627	0.607	0.663	0.610	0.601	0.665	0.631	0.583	0.621	0.601																																																																																				
780	0.636	0.611	0.639	0.619	0.676	0.622	0.613	0.679	0.644	0.594	0.633	0.614																																																																																				
781	0.648	0.622	0.651	0.630	0.688	0.633	0.624	0.692	0.656	0.605	0.645	0.625																																																																																				
782	0.660	0.634	0.664	0.642	0.701	0.645	0.637	0.704	0.669	0.617	0.657	0.637																																																																																				
783	0.673	0.646	0.676	0.654	0.714	0.657	0.649	0.718	0.681	0.629	0.670	0.650																																																																																				
784	0.686	0.658	0.689	0.668	0.729	0.670	0.662	0.733	0.695	0.642	0.683	0.663																																																																																				
785	0.700	0.671	0.703	0.681	0.743	0.684	0.675	0.748	0.709	0.655	0.697	0.676																																																																																				
786	0.714	0.685	0.718	0.695	0.758	0.698	0.689	0.763	0.723	0.668	0.712	0.691																																																																																				
787	0.728	0.699	0.732	0.709	0.773	0.712	0.703	0.778	0.738	0.682	0.727	0.705																																																																																				
788	0.742	0.712	0.746	0.722	0.787	0.725	0.717	0.793	0.752	0.695	0.741	0.719																																																																																				
789	0.755	0.724	0.759	0.735	0.801	0.739	0.730	0.807	0.765	0.708	0.754	0.732																																																																																				
790	0.768	0.737	0.772	0.749	0.815	0.752	0.743	0.822	0.779	0.721	0.768	0.745																																																																																				
791	0.782	0.750	0.787	0.762	0.830	0.766	0.757	0.837	0.793	0.735	0.783	0.759																																																																																				
792	0.798	0.766	0.804	0.779	0.848	0.782	0.774	0.855	0.811	0.751	0.800	0.777																																																																																				
793	0.812	0.779	0.818	0.793	0.863	0.796	0.788	0.871	0.826	0.765	0.815	0.791																																																																																				
794	0.828	0.794	0.833	0.808	0.879	0.812	0.803	0.888	0.841	0.780	0.831	0.807																																																																																				
795	0.844	0.810	0.850	0.824	0.896	0.828	0.820	0.905	0.858	0.796	0.848	0.824																																																																																				
796	0.858	0.822	0.864	0.838	0.910	0.842	0.834	0.921	0.873	0.810	0.864	0.838																																																																																				
797	0.873	0.838	0.879	0.853	0.927	0.858	0.849	0.938	0.889	0.825	0.880	0.854																																																																																				
798	0.888	0.852	0.895	0.869	0.944	0.874	0.865	0.955	0.905	0.841	0.896	0.871																																																																																				
799	0.904	0.868	0.911	0.885	0.961	0.890	0.881	0.973	0.922	0.857	0.914	0.888																																																																																				
800	0.920	0.883	0.928	0.901	0.978	0.907	0.898	0.991	0.939	0.873	0.931	0.905																																																																																				
801	0.937	0.899	0.946	0.919	0.997	0.924	0.916	1.010	0.958	0.891	0.950	0.924																																																																																				
802	0.952	0.914	0.961	0.934	1.014	0.940	0.931	1.028	0.974	0.907	0.967	0.940																																																																																				
803	0.968	0.929	0.978	0.951	1.030	0.957	0.948	1.046	0.991	0.923	0.985	0.958																																																																																				
804	0.985	0.946	0.996	0.968	1.050	0.975	0.966	1.066	1.010	0.941	1.004	0.976																																																																																				
805	1.001	0.961	1.013	0.985	1.068	0.992	0.983	1.085	1.028	0.959	1.023	0.995																																																																																				
806	1.017	0.976	1.029	1.001	1.085	1.008	1.000	1.102	1.045	0.975	1.040	1.012																																																																																				
807	1.034	0.993	1.047	1.019	1.103	1.027	1.018	1.122	1.064	0.993	1.059	1.031																																																																																				
808	1.049	1.008	1.063	1.035	1.120	1.043	1.034	1.139	1.081	1.010	1.077	1.048																																																																																				
809	1.066	1.024	1.081	1.053	1.139	1.061	1.053	1.159	1.099	1.028	1.097	1.067																																																																																				
810	1.082	1.040	1.098	1.069	1.157	1.078	1.070	1.178	1.117	1.045	1.115	1.087																																																																																				
811	1.100	1.056	1.116	1.088	1.177	1.097	1.089	1.198	1.137	1.064	1.135	1.106																																																																																				
812	1.117	1.073	1.134	1.106	1.196	1.116	1.108	1.218	1.155	1.083	1.156	1.126																																																																																				
813	1.135	1.091	1.153	1.125	1.215	1.135	1.127	1.239	1.176	1.102	1.177	1.147																																																																																				
814	1.152	1.107	1.171	1.143	1.234	1.154	1.145	1.259	1.195	1.121	1.196	1.166																																																																																				
815	1.169	1.123	1.189	1.161	1.254	1.172	1.164	1.280	1.214	1.140	1.217	1.186																																																																																				
816	1.189	1.143	1.210	1.182	1.276	1.193	1.186	1.303	1.237	1.162	1.241	1.210																																																																																				
817	1.206	1.158	1.228	1.200	1.294	1.212	1.204	1.323	1.256	1.180	1.260	1.230																																																																																				
818	1.223	1.177	1.247	1.219	1.315	1.233	1.224	1.344	1.277	1.201	1.282	1.252																																																																																				
819	1.243	1.195	1.268	1.240	1.337	1.254	1.245	1.367	1.299	1.223	1.306	1.276																																																																																				
820	1.266	1.217	1.292	1.264	1.363	1.279	1.271	1.395	1.325	1.248	1.334	1.303																																																																																				
821	1.286	1.237	1.315	1.287	1.387	1.303	1.294	1.421	1.349	1.272	1.360	1.329																																																																																				
822	1.301	1.252	1.331	1.303	1.404	1.320	1.311	1.438	1.367	1.289	1.378	1.347																																																																																				
823	1.313	1.262	1.343	1.316	1.416	1.332	1.323	1.452	1.379	1.302	1.391	1.360																																																																																				
824	1.322	1.272	1.353	1.326	1.427	1.343	1.334	1.463	1.391	1.313	1.403	1.371																																																																																				
825	1.335	1.284	1.367	1.339	1.441	1.357	1.348	1.478	1.405	1.328	1.418	1.387																																																																																				
826	1.357	1.306	1.391	1.364	1.467	1.382	1.373	1.505	1.431	1.354	1.446	1.415																																																																																				
827	1.378	1.326	1.414	1.387	1.491	1.406	1.397	1.531	1.456	1.378	1.472	1.441																																																																																				
828	1.394	1.342	1.431	1.405	1.510	1.425	1.415	1.551	1.475	1.397	1.493	1.461																																																																																				
829	1.407	1.354	1.445	1.418	1.524	1.439	1.430	1.566	1.490	1.412	1.508	1.476																																																																																				
830	1.422	1.368	1.461	1.435	1.541	1.456	1.446	1.584	1.507	1.430	1.527	1.496																																																																																				
831	1.441	1.387	1.483	1.456	1.563	1.478	1.469	1.608	1.530	1.453	1.552	1.521																																																																																				
832	1.465	1.411	1.510	1.484	1.593	1.507	1.498	1.640	1.560	1.482	1.585	1.554																																																																																				
833	1.485	1.430	1.531	1.506	1.615	1.530	1.520	1.664	1.583	1.506	1.609	1.579																																																																																				
834	1.498	1.444	1.546	1.521	1.631	1.546	1.536	1.681	1.600	1.522	1.626	1.595																																																																																				
835	1.512	1.457	1.561	1.536	1.647	1.562	1.552	1.697	1.616	1.538	1.643	1.613																																																																																				
836	1.524	1.468	1.574	1.549	1.660	1.576	1.565	1.713	1.631	1.554	1.659	1.629																																																																																				
837	1.539	1.483	1.591	1.567	1.678	1.594	1.583	1.731	1.649	1.572	1.679	1.648																																																																																				
838	1.556	1.500	1.611	1.587	1.700	1.615	1.605	1.755	1.671	1.594	1.703	1.672																																																																																				
839	1.574	1.519	1.631	1.608	1.722	1.637	1.625	1.778	1.693	1.616	1.727	1.697																																																																																				
840	1.589	1.533	1.648	1.625	1.739	1.655	1.644	1.797	1.712	1.635	1.747	1.718																																																																																				
841	1.603	1.546	1.664	1.641	1.755	1.671	1.660	1.813	1.729	1.652	1.765	1.737																																																																																				
842	1.615	1.559	1.677	1.655	1.770	1.687	1.675	1.830	1.745	1.668	1.782	1.753																																																																																				
843	1.629	1.573	1.693	1.671	1.787	1.703	1.692	1.848	1.761	1.686	1.800	1.772																																																																																				
844	1.645	1.587	1.711	1.690	1.806	1.722	1.710	1.869	1.782	1.706	1.822	1.794																																																																																				
845	1.659	1.602	1.727	1.707	1.823	1.741	1.728	1.888	1.801	1.726	1.842	1.815																																																																																				
846	1.672	1.615	1.743	1.723	1.839	1.757	1.743	1.905	1.817	1.742	1.860	1.833																																																																																				
847	1.685	1.628	1.758	1.738	1.856	1.774	1.761	1.921	1.833	1.759	1.879	1.851																																																																																				
848	1.697	1.640	1.772	1.752	1.870	1.788	1.775	1.939	1.849	1.775	1.895	1.868																																																																																				
849	1.709	1.652	1.785	1.768	1.885	1.804	1.790	1.954	1.865	1.791	1.914	1.887																																																																																				
850	1.721	1.664	1.801	1.782	1.900	1.819	1.804	1.971	1.880	1.809	1.931	1.904																																																																																				
851	1.732	1.676	1.813	1.796	1.914	1.833	1.819	1.986	1.895	1.823	1.946	1.920																																																																																				
852	1.745	1.688	1.829	1.811	1.931	1.850	1.835	2.003	1.910	1.839	1.965	1.939																																																																																				
853	1.756	1.699	1.841	1.824	1.943	1.864	1.848	2.017	1.926	1.854	1.980	1.954																																																																																				
854	1.767	1.710	1.853	1.839	1.958	1.877	1.863	2.032	1.940	1.869	1.996	1.971																																																																																				
855	1.776	1.720	1.865	1.850	1.970	1.891	1.875	2.046	1.954	1.882	2.010	1.988																																																																																				
856	1.788	1.731	1.878	1.865	1.984	1.905	1.889	2.062	1.969	1.899	2.027	2.003																																																																																				
857	1.798	1.741	1.889	1.877	1.996	1.919	1.902	2.075	1.982	1.913	2.043	2.019																																																																																				
858	1.807	1.750	1.902	1.888	2.008	1.931	1.913	2.088	1.994	1.927	2.057	2.034																																																																																				
859	1.816	1.760	1.913	1.900	2.021	1.945	1.925	2.102	2.007	1.940	2.070	2.048																																																																																				
860	1.824	1.768	1.923	1.912	2.031	1.955	1.936	2.112	2.019	1.951	2.080	2.061																																																																																				
861	1.832	1.776	1.933	1.922	2.042	1.966	1.947	2.124	2.029	1.963	2.093	2.072																																																																																				
862	1.840	1.784	1.943	1.932	2.051	1.978	1.956	2.135	2.042	1.975	2.107	2.087																																																																																				
863	1.847	1.792	1.954	1.943	2.062	1.988	1.966	2.145	2.051	1.987	2.119	2.097																																																																																				
864	1.855	1.801	1.963	1.953	2.071	1.998	1.977	2.158	2.062	1.997	2.131	2.110																																																																																				
865	1.861	1.807	1.971	1.962	2.083	2.008	1.986	2.167	2.074	2.008	2.141	2.123																																																																																				
866	1.868	1.814	1.979	1.972	2.091	2.018	1.996	2.179	2.082	2.020	2.153	2.133																																																																																				
867	1.874	1.822	1.989	1.980	2.099	2.028	2.004	2.185	2.092	2.029	2.163	2.144																																																																																				
868	1.880	1.827	1.997	1.989	2.107	2.035	2.013	2.195	2.100	2.039	2.173	2.154																																																																																				
869	1.886	1.833	2.003	1.997	2.115	2.045	2.021	2.202	2.109	2.047	2.181	2.166																																																																																				
870	1.891	1.839	2.011	2.003	2.122	2.052	2.027	2.212	2.117	2.056	2.190	2.174																																																																																				
871	1.896	1.843	2.017	2.012	2.129	2.060	2.034	2.219	2.124	2.064	2.199	2.184																																																																																				
872	1.901	1.849	2.022	2.017	2.134	2.066	2.041	2.226	2.130	2.072	2.207	2.190																																																																																				
873	1.906	1.853	2.030	2.027	2.142	2.073	2.046	2.235	2.137	2.079	2.214	2.200																																																																																				
874	1.908	1.857	2.035	2.031	2.148	2.078	2.052	2.238	2.143	2.086	2.219	2.207																																																																																				
875	1.912	1.860	2.040	2.038	2.155	2.084	2.058	2.247	2.151	2.094	2.229	2.214																																																																																				
876	1.914	1.864	2.044	2.042	2.155	2.089	2.061	2.250	2.153	2.098	2.233	2.222																																																																																				
877	1.916	1.867	2.049	2.047	2.163	2.094	2.066	2.255	2.159	2.103	2.239	2.227																																																																																				
878	1.917	1.869	2.052	2.052	2.166	2.099	2.069	2.261	2.163	2.109	2.246	2.233																																																																																				
879	1.917	1.870	2.055	2.055	2.170	2.102	2.072	2.264	2.167	2.112	2.250	2.240																																																																																				
880	1.919	1.872	2.058	2.058	2.172	2.106	2.074	2.268	2.171	2.116	2.253	2.244																																																																																				
881	1.920	1.874	2.060	2.061	2.175	2.108	2.076	2.270	2.173	2.119	2.256	2.246																																																																																				
882	1.921	1.876	2.062	2.063	2.176	2.111	2.078	2.272	2.175	2.122	2.258	2.248																																																																																				
883	1.922	1.877	2.064	2.065	2.178	2.113	2.079	2.274	2.177	2.125	2.259	2.250																																																																																				
884	1.923	1.879	2.065	2.067	2.179	2.114	2.080	2.275	2.178	2.127	2.260	2.252																																																																																				
885	1.922	1.879	2.066	2.068	2.179	2.115	2.081	2.276	2.179	2.129	2.262	2.253																																																																																				
886	1.920	1.877	2.065	2.067	2.179	2.114	2.079	2.274	2.178	2.128	2.263	2.254																																																																																				
887	1.916	1.875	2.064	2.067	2.179	2.114	2.077	2.274	2.177	2.128	2.261	2.255																																																																																				
888	1.914	1.874	2.064	2.066	2.177	2.113	2.076	2.274	2.177	2.128	2.261	2.255																																																																																				
889	1.911	1.872	2.063	2.066	2.176	2.112	2.074	2.271	2.175	2.127	2.260	2.253																																																																																				
890	1.909	1.870	2.061	2.065	2.174	2.109	2.072	2.270	2.172	2.125	2.258	2.252																																																																																				
891	1.905	1.867	2.059	2.064	2.171	2.107	2.069	2.267	2.171	2.123	2.256	2.250																																																																																				
892	1.900	1.863	2.055	2.060	2.168	2.105	2.064	2.264	2.166	2.120	2.253	2.249																																																																																				
893	1.895	1.859	2.051	2.058	2.163	2.101	2.060	2.259	2.163	2.117	2.249	2.245																																																																																				
894	1.891	1.857	2.049	2.056	2.162	2.098	2.058	2.258	2.161	2.114	2.245	2.242																																																																																				
895	1.889	1.855	2.048	2.054	2.159	2.096	2.054	2.255	2.159	2.114	2.244	2.240																																																																																				
896	1.887	1.853	2.046	2.053	2.156	2.095	2.053	2.254	2.157	2.113	2.242	2.238																																																																																				
897	1.883	1.851	2.044	2.050	2.154	2.093	2.049	2.250	2.153	2.111	2.237	2.235																																																																																				
898	1.879	1.848	2.040	2.047	2.149	2.089	2.044	2.245	2.150	2.106	2.233	2.232																																																																																				
899	1.872	1.842	2.034	2.041	2.142	2.083	2.037	2.239	2.142	2.101	2.226	2.224																																																																																				
900	1.864	1.835	2.028	2.035	2.136	2.075	2.030	2.230	2.135	2.094	2.218	2.218																																																																																				
901	1.856	1.827	2.019	2.028	2.128	2.068	2.021	2.222	2.125	2.085	2.211	2.211																																																																																				
902	1.846	1.819	2.011	2.021	2.119	2.059	2.011	2.212	2.118	2.076	2.201	2.202																																																																																				
903	1.839	1.813	2.006	2.015	2.112	2.053	2.003	2.205	2.111	2.070	2.192	2.194																																																																																				
904	1.835	1.810	2.002	2.011	2.108	2.049	2.000	2.202	2.107	2.066	2.189	2.190																																																																																				
905	1.833	1.808	1.999	2.009	2.105	2.045	1.996	2.198	2.104	2.063	2.186	2.186																																																																																				
906	1.829	1.805	1.996	2.006	2.100	2.041	1.992	2.193	2.099	2.061	2.181	2.182																																																																																				
907	1.823	1.800	1.990	2.000	2.095	2.036	1.986	2.186	2.093	2.055	2.173	2.175																																																																																				
908	1.811	1.789	1.980	1.990	2.084	2.025	1.973	2.175	2.081	2.043	2.160	2.163																																																																																				
909	1.800	1.780	1.968	1.980	2.072	2.013	1.962	2.162	2.069	2.033	2.148	2.152																																																																																				
910	1.791	1.772	1.960	1.972	2.063	2.004	1.950	2.151	2.059	2.022	2.139	2.143																																																																																				
911	1.782	1.763	1.952	1.962	2.053	1.994	1.940	2.140	2.050	2.013	2.127	2.131																																																																																				
912	1.770	1.752	1.940	1.951	2.039	1.981	1.928	2.128	2.035	1.998	2.114	2.119																																																																																				
913	1.757	1.741	1.928	1.940	2.028	1.968	1.914	2.114	2.023	1.986	2.100	2.106																																																																																				
914	1.745	1.730	1.917	1.929	2.015	1.956	1.900	2.101	2.009	1.973	2.086	2.091																																																																																				
915	1.738	1.725	1.911	1.922	2.008	1.949	1.893	2.094	2.003	1.966	2.078	2.083																																																																																				
916	1.734	1.721	1.906	1.919	2.003	1.944	1.888	2.088	1.998	1.962	2.072	2.077																																																																																				
917	1.730	1.718	1.902	1.914	1.998	1.940	1.883	2.083	1.993	1.958	2.066	2.071																																																																																				
918	1.725	1.714	1.898	1.909	1.992	1.935	1.877	2.077	1.987	1.953	2.059	2.065																																																																																				
919	1.716	1.705	1.889	1.900	1.982	1.924	1.866	2.067	1.977	1.943	2.047	2.055																																																																																				
920	1.704	1.694	1.877	1.889	1.970	1.912	1.853	2.053	1.962	1.929	2.034	2.041																																																																																				
921	1.691	1.682	1.863	1.876	1.955	1.897	1.838	2.037	1.948	1.914	2.017	2.024																																																																																				
922	1.679	1.672	1.851	1.864	1.943	1.885	1.826	2.023	1.935	1.901	2.004	2.011																																																																																				
923	1.667	1.661	1.840	1.852	1.929	1.871	1.811	2.010	1.921	1.889	1.988	1.998																																																																																				
924	1.657	1.651	1.830	1.842	1.918	1.860	1.800	1.996	1.909	1.877	1.976	1.985																																																																																				
925	1.647	1.641	1.818	1.831	1.906	1.849	1.787	1.984	1.896	1.864	1.963	1.971																																																																																				
926	1.635	1.631	1.806	1.818	1.893	1.836	1.774	1.971	1.884	1.852	1.948	1.959																																																																																				
927	1.623	1.621	1.795	1.809	1.883	1.824	1.762	1.958	1.871	1.839	1.935	1.945																																																																																				
928	1.612	1.611	1.785	1.796	1.869	1.810	1.747	1.944	1.858	1.825	1.920	1.929																																																																																				
929	1.601	1.601	1.774	1.785	1.857	1.799	1.736	1.931	1.845	1.813	1.907	1.916																																																																																				
930	1.592	1.591	1.763	1.775	1.845	1.786	1.723	1.919	1.833	1.801	1.893	1.904																																																																																				
931	1.579	1.581	1.752	1.764	1.834	1.775	1.712	1.905	1.821	1.788	1.881	1.888																																																																																				
932	1.570	1.572	1.741	1.753	1.821	1.762	1.698	1.893	1.808	1.776	1.867	1.876																																																																																				
933	1.557	1.560	1.728	1.740	1.807	1.748	1.684	1.878	1.794	1.761	1.851	1.860																																																																																				
934	1.545	1.549	1.716	1.728	1.794	1.735	1.670	1.864	1.780	1.748	1.836	1.846																																																																																				
935	1.533	1.538	1.704	1.715	1.780	1.721	1.656	1.848	1.765	1.733	1.820	1.830																																																																																				
936	1.522	1.528	1.693	1.704	1.768	1.708	1.644	1.836	1.752	1.721	1.806	1.817																																																																																				
937	1.513	1.520	1.682	1.694	1.757	1.698	1.633	1.825	1.741	1.710	1.794	1.805																																																																																				
938	1.504	1.512	1.674	1.685	1.748	1.688	1.622	1.814	1.731	1.700	1.783	1.794																																																																																				
939	1.496	1.504	1.665	1.675	1.737	1.678	1.612	1.803	1.721	1.689	1.772	1.782																																																																																				
940	1.486	1.496	1.655	1.665	1.727	1.667	1.601	1.791	1.709	1.679	1.759	1.771																																																																																				
941	1.475	1.486	1.644	1.654	1.715	1.655	1.588	1.778	1.696	1.666	1.745	1.756																																																																																				
942	1.463	1.474	1.630	1.641	1.700	1.640	1.574	1.764	1.681	1.651	1.729	1.741																																																																																				
943	1.453	1.464	1.620	1.630	1.689	1.629	1.561	1.750	1.669	1.638	1.716	1.728																																																																																				
944	1.442	1.455	1.609	1.619	1.676	1.616	1.549	1.737	1.657	1.626	1.702	1.713																																																																																				
945	1.433	1.447	1.599	1.609	1.666	1.605	1.538	1.726	1.645	1.614	1.690	1.702																																																																																				
946	1.423	1.437	1.589	1.598	1.654	1.593	1.526	1.713	1.633	1.602	1.677	1.688																																																																																				
947	1.413	1.428	1.579	1.588	1.643	1.582	1.514	1.702	1.621	1.591	1.664	1.676																																																																																				
948	1.404	1.419	1.568	1.577	1.632	1.570	1.502	1.688	1.609	1.578	1.651	1.662																																																																																				
949	1.395	1.411	1.559	1.568	1.622	1.560	1.492	1.678	1.598	1.567	1.639	1.651																																																																																				
950	1.387	1.404	1.551	1.559	1.613	1.551	1.482	1.667	1.589	1.558	1.628	1.639																																																																																				
951	1.381	1.398	1.544	1.552	1.605	1.543	1.474	1.659	1.581	1.549	1.619	1.631																																																																																				
952	1.375	1.393	1.538	1.546	1.597	1.536	1.466	1.651	1.573	1.542	1.611	1.623																																																																																				
953	1.367	1.386	1.529	1.538	1.589	1.527	1.458	1.641	1.564	1.533	1.601	1.612																																																																																				
954	1.359	1.378	1.520	1.528	1.578	1.516	1.446	1.631	1.552	1.521	1.588	1.600																																																																																				
955	1.351	1.370	1.511	1.518	1.568	1.506	1.436	1.619	1.542	1.510	1.577	1.589																																																																																				
956	1.342	1.362	1.503	1.509	1.558	1.495	1.426	1.609	1.532	1.500	1.565	1.577																																																																																				
957	1.333	1.353	1.492	1.498	1.547	1.484	1.414	1.597	1.519	1.488	1.552	1.564																																																																																				
958	1.322	1.344	1.481	1.488	1.535	1.471	1.402	1.584	1.506	1.475	1.539	1.551																																																																																				
959	1.313	1.335	1.471	1.477	1.524	1.461	1.391	1.571	1.495	1.463	1.526	1.538																																																																																				
960	1.302	1.325	1.460	1.466	1.512	1.448	1.380	1.559	1.483	1.452	1.514	1.526																																																																																				
961	1.291	1.315	1.448	1.454	1.499	1.435	1.367	1.545	1.470	1.438	1.499	1.510																																																																																				
962	1.280	1.303	1.435	1.441	1.486	1.422	1.353	1.531	1.455	1.424	1.484	1.496																																																																																				
963	1.269	1.294	1.424	1.430	1.473	1.410	1.340	1.518	1.443	1.411	1.470	1.482																																																																																				
964	1.257	1.282	1.411	1.417	1.460	1.396	1.327	1.503	1.429	1.396	1.455	1.466																																																																																				
965	1.245	1.271	1.398	1.403	1.445	1.381	1.313	1.488	1.414	1.383	1.440	1.452																																																																																				
966	1.232	1.258	1.384	1.389	1.429	1.366	1.298	1.472	1.398	1.367	1.424	1.435																																																																																				
967	1.221	1.248	1.371	1.377	1.417	1.354	1.285	1.458	1.385	1.353	1.409	1.420																																																																																				
968	1.210	1.237	1.360	1.365	1.404	1.341	1.273	1.444	1.372	1.341	1.395	1.407																																																																																				
969	1.199	1.227	1.349	1.352	1.391	1.329	1.261	1.431	1.359	1.328	1.382	1.393																																																																																				
970	1.188	1.216	1.336	1.340	1.378	1.315	1.247	1.417	1.345	1.314	1.367	1.378																																																																																				
971	1.177	1.205	1.323	1.327	1.365	1.302	1.234	1.403	1.332	1.301	1.352	1.363																																																																																				
972	1.165	1.194	1.311	1.315	1.351	1.288	1.221	1.388	1.318	1.287	1.338	1.349																																																																																				
973	1.153	1.182	1.298	1.301	1.337	1.274	1.208	1.374	1.304	1.273	1.323	1.334																																																																																				
974	1.138	1.169	1.282	1.285	1.321	1.258	1.192	1.356	1.287	1.256	1.305	1.317																																																																																				
975	1.123	1.154	1.265	1.269	1.304	1.241	1.174	1.337	1.269	1.238	1.287	1.298																																																																																				
976	1.107	1.137	1.248	1.251	1.285	1.222	1.156	1.318	1.249	1.219	1.268	1.277																																																																																				
977	1.094	1.125	1.234	1.237	1.271	1.208	1.142	1.302	1.235	1.204	1.252	1.261																																																																																				
978	1.086	1.117	1.225	1.228	1.260	1.198	1.132	1.292	1.225	1.194	1.240	1.251																																																																																				
979	1.080	1.111	1.218	1.220	1.252	1.191	1.126	1.284	1.218	1.187	1.232	1.243																																																																																				
980	1.076	1.108	1.213	1.215	1.246	1.186	1.120	1.278	1.212	1.182	1.225	1.236																																																																																				
981	1.070	1.102	1.206	1.208	1.239	1.179	1.113	1.270	1.205	1.175	1.217	1.228																																																																																				
982	1.062	1.093	1.197	1.199	1.229	1.169	1.104	1.260	1.195	1.166	1.207	1.218																																																																																				
983	1.047	1.079	1.181	1.183	1.212	1.152	1.088	1.242	1.178	1.149	1.190	1.200																																																																																				
984	1.028	1.061	1.161	1.162	1.191	1.131	1.067	1.220	1.156	1.127	1.167	1.177																																																																																				
985	1.012	1.045	1.143	1.144	1.172	1.113	1.050	1.200	1.137	1.107	1.148	1.158																																																																																				
986	0.998	1.031	1.127	1.129	1.157	1.097	1.034	1.183	1.121	1.091	1.131	1.141																																																																																				
987	0.984	1.017	1.111	1.112	1.139	1.080	1.018	1.165	1.104	1.075	1.113	1.123																																																																																				
988	0.967	1.000	1.092	1.093	1.121	1.061	0.999	1.145	1.084	1.055	1.094	1.102																																																																																				
989	0.952	0.986	1.077	1.078	1.104	1.045	0.984	1.128	1.068	1.038	1.077	1.086																																																																																				
990	0.941	0.975	1.064	1.065	1.091	1.032	0.971	1.113	1.054	1.025	1.063	1.071																																																																																				
991	0.933	0.967	1.056	1.056	1.081	1.022	0.962	1.104	1.045	1.016	1.052	1.061																																																																																				
992	0.927	0.962	1.050	1.051	1.075	1.016	0.957	1.097	1.039	1.010	1.045	1.054																																																																																				
993	0.924	0.958	1.046	1.046	1.069	1.012	0.952	1.092	1.034	1.006	1.039	1.049																																																																																				
994	0.918	0.953	1.039	1.039	1.062	1.005	0.946	1.085	1.027	0.999	1.032	1.042																																																																																				
995	0.910	0.945	1.031	1.030	1.052	0.996	0.937	1.075	1.018	0.991	1.022	1.032																																																																																				
996	0.898	0.933	1.017	1.016	1.038	0.982	0.923	1.060	1.004	0.976	1.008	1.017																																																																																				
997	0.881	0.916	0.999	0.999	1.020	0.964	0.906	1.041	0.985	0.958	0.989	0.998																																																																																				
998	0.866	0.902	0.983	0.982	1.004	0.948	0.891	1.023	0.968	0.941	0.972	0.980																																																																																				
999	0.854	0.889	0.969	0.968	0.988	0.933	0.876	1.007	0.953	0.926	0.957	0.965																																																																																				

结果
	1	2	3	4	5	6	7	8	9	10	11	12
A	1.923	1.879	2.066	2.068	2.179	2.115	2.081	2.276	2.179	2.129	2.263	2.255	Mean Max OD [Spectrum]
B	?????	?????	?????	?????	?????	?????	?????	?????	?????	?????	?????	?????	Mean Max OD [Spectrum]
C	?????	?????	?????	?????	?????	?????	?????	?????	?????	?????	?????	?????	Mean Max OD [Spectrum]
D	?????	?????	?????	?????	?????	?????	?????	?????	?????	?????	?????	?????	Mean Max OD [Spectrum]
E	?????	?????	?????	?????	?????	?????	?????	?????	?????	?????	?????	?????	Mean Max OD [Spectrum]
F	?????	?????	?????	?????	?????	?????	?????	?????	?????	?????	?????	?????	Mean Max OD [Spectrum]
G	?????	?????	?????	?????	?????	?????	?????	?????	?????	?????	?????	?????	Mean Max OD [Spectrum]
H	?????	?????	?????	?????	?????	?????	?????	?????	?????	?????	?????	?????	Mean Max OD [Spectrum]

