

软件版本	3.11.19



实验文件路径:	C:\Users\inlab\Desktop\H行400到999nm.xpt
方案文件路径:	



板编号	板 10
日期	2023/6/26
时间	10:07:19
检测仪类型:	Epoch 2
检测仪序列号:	2205170B
检测类型	检测仪

程序详细信息

板类型	96 WELL PLATE
完成后弹出板	
检测	吸收光 光谱
	H1..H12
	开始: 400 nm,  停止: 999 nm,  步骤: 1 nm
	检测前校准
	检测速度: 正常,  延迟: 100 msec,  测量值/数据点: 8

Spectrum

波长	A1	A2	A3	A4	A5	A6	A7	A8	A9	A10	A11	A12	B1	B2	B3	B4	B5	B6	B7	B8	B9	B10	B11	B12	C1	C2	C3	C4	C5	C6	C7	C8	C9	C10	C11	C12	D1	D2	D3	D4	D5	D6	D7	D8	D9	D10	D11	D12	E1	E2	E3	E4	E5	E6	E7	E8	E9	E10	E11	E12	F1	F2	F3	F4	F5	F6	F7	F8	F9	F10	F11	F12	G1	G2	G3	G4	G5	G6	G7	G8	G9	G10	G11	G12	H1	H2	H3	H4	H5	H6	H7	H8	H9	H10	H11	H12
400																																																																																					0.523	0.499	0.547	0.561	0.477	0.490	0.483	0.498	0.532	0.521	0.499	0.532
401																																																																																					0.522	0.497	0.546	0.559	0.476	0.488	0.481	0.496	0.530	0.519	0.498	0.531
402																																																																																					0.520	0.496	0.544	0.558	0.475	0.487	0.480	0.495	0.529	0.518	0.497	0.530
403																																																																																					0.519	0.495	0.543	0.556	0.474	0.486	0.479	0.494	0.527	0.516	0.495	0.528
404																																																																																					0.518	0.493	0.541	0.555	0.472	0.484	0.477	0.492	0.526	0.515	0.494	0.527
405																																																																																					0.516	0.492	0.540	0.553	0.471	0.483	0.476	0.491	0.525	0.514	0.493	0.525
406																																																																																					0.515	0.491	0.538	0.552	0.470	0.482	0.475	0.490	0.523	0.512	0.492	0.524
407																																																																																					0.514	0.490	0.537	0.551	0.469	0.481	0.474	0.489	0.522	0.511	0.491	0.523
408																																																																																					0.513	0.489	0.536	0.549	0.468	0.480	0.473	0.488	0.521	0.510	0.489	0.522
409																																																																																					0.511	0.488	0.535	0.548	0.467	0.479	0.472	0.487	0.520	0.509	0.488	0.521
410																																																																																					0.510	0.486	0.533	0.546	0.465	0.477	0.470	0.485	0.518	0.507	0.487	0.519
411																																																																																					0.509	0.485	0.532	0.545	0.464	0.476	0.469	0.484	0.517	0.506	0.486	0.518
412																																																																																					0.508	0.484	0.531	0.544	0.463	0.475	0.468	0.483	0.516	0.505	0.484	0.517
413																																																																																					0.506	0.483	0.529	0.542	0.462	0.474	0.467	0.482	0.514	0.504	0.483	0.516
414																																																																																					0.505	0.481	0.528	0.541	0.461	0.473	0.466	0.481	0.513	0.503	0.482	0.514
415																																																																																					0.504	0.480	0.527	0.540	0.460	0.472	0.465	0.480	0.512	0.501	0.481	0.513
416																																																																																					0.503	0.479	0.526	0.539	0.459	0.471	0.463	0.478	0.511	0.500	0.480	0.512
417																																																																																					0.502	0.478	0.525	0.537	0.458	0.469	0.462	0.477	0.509	0.499	0.479	0.511
418																																																																																					0.500	0.477	0.524	0.536	0.457	0.468	0.461	0.476	0.508	0.498	0.478	0.510
419																																																																																					0.499	0.476	0.522	0.535	0.456	0.467	0.460	0.475	0.507	0.497	0.476	0.509
420																																																																																					0.498	0.474	0.521	0.534	0.455	0.466	0.459	0.474	0.506	0.495	0.475	0.508
421																																																																																					0.497	0.473	0.520	0.533	0.454	0.465	0.458	0.473	0.505	0.495	0.474	0.507
422																																																																																					0.496	0.473	0.519	0.531	0.453	0.464	0.457	0.472	0.504	0.494	0.473	0.506
423																																																																																					0.495	0.472	0.518	0.530	0.452	0.464	0.456	0.471	0.503	0.492	0.472	0.505
424																																																																																					0.494	0.471	0.517	0.529	0.451	0.463	0.455	0.470	0.502	0.492	0.472	0.504
425																																																																																					0.493	0.470	0.516	0.528	0.450	0.462	0.454	0.469	0.501	0.491	0.471	0.503
426																																																																																					0.492	0.469	0.515	0.527	0.449	0.461	0.454	0.468	0.499	0.490	0.470	0.502
427																																																																																					0.491	0.468	0.514	0.526	0.449	0.460	0.453	0.467	0.499	0.489	0.469	0.501
428																																																																																					0.490	0.467	0.513	0.525	0.448	0.459	0.452	0.466	0.497	0.488	0.468	0.500
429																																																																																					0.489	0.466	0.512	0.524	0.447	0.458	0.451	0.465	0.496	0.487	0.467	0.499
430																																																																																					0.488	0.465	0.511	0.523	0.446	0.457	0.450	0.464	0.495	0.486	0.466	0.498
431																																																																																					0.487	0.464	0.510	0.522	0.445	0.456	0.449	0.463	0.494	0.485	0.465	0.497
432																																																																																					0.486	0.463	0.509	0.521	0.444	0.455	0.448	0.463	0.493	0.484	0.464	0.495
433																																																																																					0.485	0.462	0.508	0.520	0.443	0.454	0.447	0.462	0.492	0.483	0.463	0.494
434																																																																																					0.484	0.461	0.507	0.519	0.442	0.453	0.446	0.461	0.491	0.482	0.462	0.494
435																																																																																					0.483	0.460	0.506	0.518	0.441	0.452	0.445	0.460	0.490	0.481	0.461	0.492
436																																																																																					0.482	0.459	0.505	0.517	0.440	0.451	0.444	0.459	0.489	0.480	0.460	0.491
437																																																																																					0.481	0.458	0.504	0.516	0.440	0.451	0.443	0.458	0.488	0.479	0.459	0.491
438																																																																																					0.480	0.457	0.503	0.514	0.439	0.450	0.443	0.457	0.487	0.478	0.458	0.489
439																																																																																					0.479	0.456	0.502	0.514	0.438	0.449	0.442	0.456	0.486	0.477	0.457	0.488
440																																																																																					0.478	0.455	0.501	0.513	0.437	0.448	0.441	0.455	0.485	0.476	0.456	0.488
441																																																																																					0.477	0.455	0.500	0.512	0.436	0.447	0.440	0.454	0.485	0.475	0.456	0.487
442																																																																																					0.476	0.454	0.499	0.511	0.436	0.446	0.439	0.454	0.484	0.475	0.455	0.486
443																																																																																					0.476	0.453	0.498	0.510	0.435	0.446	0.439	0.453	0.483	0.474	0.454	0.485
444																																																																																					0.475	0.452	0.498	0.509	0.434	0.445	0.438	0.452	0.482	0.473	0.453	0.484
445																																																																																					0.474	0.452	0.497	0.508	0.433	0.444	0.437	0.451	0.481	0.472	0.453	0.483
446																																																																																					0.473	0.451	0.496	0.507	0.433	0.443	0.436	0.450	0.480	0.471	0.452	0.482
447																																																																																					0.472	0.450	0.495	0.507	0.432	0.443	0.435	0.450	0.479	0.471	0.451	0.481
448																																																																																					0.472	0.449	0.494	0.506	0.431	0.442	0.435	0.449	0.479	0.470	0.450	0.481
449																																																																																					0.471	0.449	0.494	0.505	0.431	0.441	0.434	0.448	0.478	0.469	0.450	0.480
450																																																																																					0.470	0.448	0.493	0.504	0.430	0.441	0.433	0.447	0.477	0.468	0.449	0.479
451																																																																																					0.469	0.447	0.492	0.503	0.429	0.440	0.433	0.447	0.476	0.467	0.448	0.478
452																																																																																					0.469	0.446	0.491	0.503	0.429	0.439	0.432	0.446	0.476	0.467	0.447	0.477
453																																																																																					0.468	0.446	0.491	0.502	0.428	0.439	0.431	0.445	0.475	0.466	0.447	0.477
454																																																																																					0.467	0.445	0.490	0.501	0.428	0.438	0.431	0.445	0.474	0.465	0.446	0.476
455																																																																																					0.466	0.444	0.489	0.500	0.427	0.437	0.430	0.444	0.473	0.465	0.445	0.475
456																																																																																					0.466	0.444	0.489	0.500	0.426	0.437	0.429	0.443	0.473	0.464	0.445	0.475
457																																																																																					0.465	0.443	0.488	0.499	0.426	0.436	0.429	0.443	0.472	0.463	0.444	0.474
458																																																																																					0.465	0.442	0.488	0.499	0.425	0.436	0.428	0.442	0.471	0.463	0.443	0.473
459																																																																																					0.464	0.442	0.487	0.498	0.425	0.435	0.428	0.442	0.471	0.462	0.443	0.473
460																																																																																					0.464	0.442	0.487	0.498	0.425	0.435	0.427	0.441	0.470	0.462	0.442	0.472
461																																																																																					0.463	0.441	0.486	0.497	0.424	0.435	0.427	0.441	0.470	0.462	0.442	0.472
462																																																																																					0.463	0.441	0.486	0.497	0.424	0.434	0.427	0.441	0.470	0.461	0.442	0.471
463																																																																																					0.463	0.441	0.486	0.497	0.424	0.434	0.427	0.441	0.469	0.461	0.442	0.471
464																																																																																					0.462	0.440	0.486	0.496	0.424	0.434	0.426	0.440	0.469	0.461	0.441	0.471
465																																																																																					0.462	0.440	0.485	0.496	0.423	0.434	0.426	0.440	0.469	0.460	0.441	0.471
466																																																																																					0.462	0.440	0.485	0.496	0.423	0.434	0.426	0.440	0.469	0.460	0.441	0.470
467																																																																																					0.462	0.440	0.485	0.496	0.423	0.433	0.426	0.440	0.469	0.460	0.441	0.470
468																																																																																					0.462	0.440	0.485	0.496	0.423	0.433	0.426	0.440	0.468	0.460	0.440	0.470
469																																																																																					0.462	0.440	0.485	0.496	0.423	0.433	0.426	0.440	0.468	0.460	0.440	0.470
470																																																																																					0.462	0.440	0.485	0.496	0.423	0.434	0.426	0.440	0.469	0.460	0.440	0.470
471																																																																																					0.462	0.440	0.486	0.496	0.424	0.434	0.426	0.440	0.469	0.460	0.440	0.470
472																																																																																					0.462	0.440	0.486	0.497	0.424	0.434	0.426	0.440	0.469	0.460	0.441	0.470
473																																																																																					0.463	0.440	0.486	0.497	0.424	0.434	0.426	0.440	0.469	0.460	0.441	0.470
474																																																																																					0.463	0.441	0.487	0.498	0.425	0.435	0.427	0.441	0.470	0.461	0.441	0.471
475																																																																																					0.464	0.441	0.488	0.498	0.425	0.435	0.427	0.441	0.470	0.461	0.442	0.471
476																																																																																					0.464	0.442	0.489	0.499	0.426	0.436	0.428	0.442	0.471	0.462	0.442	0.472
477																																																																																					0.465	0.442	0.490	0.500	0.427	0.437	0.429	0.443	0.472	0.463	0.443	0.472
478																																																																																					0.466	0.443	0.490	0.501	0.428	0.438	0.429	0.443	0.472	0.463	0.444	0.473
479																																																																																					0.467	0.444	0.492	0.503	0.429	0.439	0.430	0.445	0.474	0.464	0.445	0.474
480																																																																																					0.468	0.445	0.493	0.504	0.430	0.440	0.431	0.446	0.475	0.465	0.446	0.475
481																																																																																					0.470	0.447	0.495	0.506	0.432	0.442	0.433	0.447	0.477	0.467	0.447	0.477
482																																																																																					0.472	0.448	0.497	0.508	0.433	0.443	0.435	0.449	0.478	0.469	0.449	0.479
483																																																																																					0.473	0.450	0.499	0.510	0.435	0.445	0.436	0.451	0.480	0.470	0.450	0.480
484																																																																																					0.475	0.451	0.501	0.512	0.436	0.446	0.437	0.452	0.481	0.472	0.452	0.482
485																																																																																					0.476	0.453	0.502	0.513	0.438	0.448	0.439	0.454	0.483	0.473	0.453	0.483
486																																																																																					0.478	0.455	0.505	0.515	0.440	0.450	0.440	0.455	0.485	0.475	0.455	0.485
487																																																																																					0.481	0.457	0.508	0.518	0.442	0.452	0.443	0.458	0.488	0.477	0.457	0.487
488																																																																																					0.483	0.459	0.510	0.521	0.444	0.455	0.445	0.460	0.490	0.480	0.460	0.490
489																																																																																					0.486	0.461	0.513	0.524	0.447	0.457	0.447	0.463	0.493	0.482	0.462	0.492
490																																																																																					0.489	0.464	0.517	0.527	0.450	0.460	0.450	0.466	0.496	0.485	0.465	0.495
491																																																																																					0.492	0.467	0.520	0.531	0.453	0.463	0.453	0.469	0.499	0.488	0.468	0.498
492																																																																																					0.495	0.470	0.523	0.534	0.456	0.466	0.455	0.471	0.502	0.491	0.470	0.501
493																																																																																					0.498	0.472	0.527	0.538	0.458	0.469	0.458	0.474	0.505	0.494	0.473	0.504
494																																																																																					0.501	0.475	0.530	0.542	0.461	0.472	0.461	0.477	0.509	0.497	0.476	0.507
495																																																																																					0.505	0.479	0.535	0.546	0.465	0.476	0.464	0.481	0.513	0.501	0.480	0.511
496																																																																																					0.509	0.482	0.539	0.550	0.469	0.479	0.468	0.485	0.517	0.505	0.483	0.515
497																																																																																					0.513	0.486	0.544	0.555	0.472	0.483	0.471	0.489	0.521	0.509	0.487	0.519
498																																																																																					0.516	0.489	0.548	0.559	0.476	0.487	0.474	0.492	0.524	0.512	0.490	0.522
499																																																																																					0.519	0.492	0.551	0.562	0.479	0.490	0.476	0.495	0.527	0.515	0.493	0.525
500																																																																																					0.522	0.495	0.555	0.566	0.482	0.493	0.479	0.498	0.531	0.518	0.496	0.528
501																																																																																					0.526	0.498	0.559	0.570	0.485	0.496	0.482	0.501	0.534	0.522	0.499	0.531
502																																																																																					0.529	0.501	0.562	0.574	0.488	0.499	0.485	0.504	0.538	0.525	0.502	0.535
503																																																																																					0.532	0.503	0.566	0.577	0.491	0.502	0.488	0.507	0.540	0.528	0.505	0.538
504																																																																																					0.535	0.506	0.569	0.581	0.494	0.505	0.490	0.510	0.543	0.531	0.508	0.540
505																																																																																					0.537	0.508	0.572	0.583	0.496	0.507	0.492	0.512	0.546	0.533	0.510	0.542
506																																																																																					0.539	0.510	0.575	0.586	0.498	0.509	0.494	0.514	0.548	0.535	0.512	0.544
507																																																																																					0.541	0.511	0.577	0.588	0.500	0.511	0.495	0.516	0.550	0.536	0.513	0.546
508																																																																																					0.543	0.512	0.579	0.590	0.502	0.513	0.497	0.517	0.551	0.538	0.515	0.547
509																																																																																					0.544	0.513	0.581	0.592	0.503	0.514	0.497	0.518	0.552	0.539	0.516	0.549
510																																																																																					0.545	0.514	0.582	0.593	0.504	0.515	0.498	0.519	0.553	0.539	0.516	0.549
511																																																																																					0.545	0.514	0.583	0.594	0.505	0.516	0.498	0.519	0.553	0.540	0.516	0.549
512																																																																																					0.545	0.513	0.583	0.594	0.505	0.515	0.498	0.519	0.553	0.539	0.516	0.549
513																																																																																					0.545	0.513	0.583	0.594	0.505	0.515	0.497	0.519	0.553	0.539	0.516	0.548
514																																																																																					0.544	0.511	0.583	0.594	0.504	0.515	0.496	0.518	0.552	0.537	0.514	0.547
515																																																																																					0.543	0.510	0.582	0.593	0.503	0.514	0.495	0.517	0.550	0.536	0.513	0.546
516																																																																																					0.541	0.509	0.581	0.592	0.502	0.512	0.494	0.515	0.548	0.534	0.512	0.544
517																																																																																					0.539	0.506	0.579	0.590	0.500	0.510	0.492	0.513	0.546	0.532	0.509	0.542
518																																																																																					0.536	0.504	0.577	0.588	0.499	0.509	0.490	0.511	0.544	0.530	0.507	0.539
519																																																																																					0.534	0.502	0.575	0.585	0.497	0.507	0.487	0.508	0.541	0.527	0.505	0.537
520																																																																																					0.531	0.499	0.573	0.583	0.495	0.504	0.485	0.506	0.538	0.524	0.502	0.534
521																																																																																					0.528	0.496	0.570	0.580	0.492	0.502	0.482	0.503	0.535	0.521	0.499	0.530
522																																																																																					0.525	0.492	0.567	0.577	0.489	0.499	0.479	0.500	0.532	0.517	0.496	0.527
523																																																																																					0.520	0.488	0.563	0.573	0.486	0.495	0.475	0.495	0.527	0.513	0.491	0.522
524																																																																																					0.516	0.484	0.559	0.569	0.482	0.491	0.472	0.492	0.523	0.509	0.488	0.519
525																																																																																					0.512	0.481	0.555	0.565	0.479	0.488	0.468	0.488	0.519	0.505	0.484	0.514
526																																																																																					0.508	0.476	0.550	0.560	0.475	0.484	0.464	0.483	0.514	0.500	0.479	0.510
527																																																																																					0.503	0.472	0.546	0.556	0.471	0.479	0.460	0.479	0.509	0.495	0.475	0.505
528																																																																																					0.499	0.468	0.542	0.551	0.467	0.476	0.456	0.475	0.505	0.491	0.471	0.501
529																																																																																					0.496	0.464	0.538	0.548	0.464	0.472	0.453	0.472	0.501	0.488	0.467	0.497
530																																																																																					0.492	0.461	0.534	0.544	0.461	0.469	0.449	0.468	0.497	0.484	0.464	0.493
531																																																																																					0.487	0.457	0.529	0.539	0.457	0.465	0.445	0.464	0.492	0.479	0.460	0.488
532																																																																																					0.481	0.451	0.523	0.533	0.452	0.459	0.440	0.458	0.486	0.473	0.454	0.483
533																																																																																					0.476	0.446	0.518	0.527	0.447	0.454	0.435	0.453	0.481	0.468	0.449	0.477
534																																																																																					0.472	0.442	0.513	0.522	0.443	0.450	0.431	0.449	0.476	0.463	0.444	0.472
535																																																																																					0.467	0.437	0.507	0.517	0.438	0.445	0.426	0.444	0.471	0.458	0.440	0.467
536																																																																																					0.462	0.432	0.503	0.512	0.434	0.441	0.423	0.439	0.466	0.454	0.435	0.463
537																																																																																					0.457	0.427	0.497	0.506	0.429	0.436	0.418	0.434	0.461	0.448	0.430	0.458
538																																																																																					0.451	0.422	0.491	0.500	0.424	0.431	0.413	0.429	0.455	0.443	0.425	0.452
539																																																																																					0.446	0.417	0.485	0.493	0.418	0.425	0.407	0.423	0.449	0.437	0.420	0.446
540																																																																																					0.440	0.412	0.478	0.487	0.413	0.420	0.402	0.418	0.444	0.431	0.415	0.441
541																																																																																					0.435	0.407	0.473	0.482	0.409	0.415	0.398	0.413	0.439	0.427	0.410	0.436
542																																																																																					0.431	0.403	0.468	0.476	0.404	0.411	0.394	0.409	0.434	0.422	0.406	0.432
543																																																																																					0.427	0.399	0.463	0.472	0.400	0.407	0.390	0.405	0.429	0.418	0.402	0.427
544																																																																																					0.421	0.394	0.457	0.466	0.395	0.401	0.385	0.400	0.424	0.413	0.397	0.422
545																																																																																					0.416	0.389	0.451	0.459	0.390	0.396	0.380	0.394	0.418	0.407	0.392	0.417
546																																																																																					0.411	0.384	0.445	0.453	0.385	0.391	0.375	0.389	0.413	0.402	0.387	0.412
547																																																																																					0.406	0.380	0.439	0.447	0.380	0.386	0.371	0.384	0.408	0.397	0.383	0.407
548																																																																																					0.402	0.376	0.434	0.442	0.376	0.382	0.367	0.380	0.404	0.393	0.379	0.403
549																																																																																					0.398	0.372	0.429	0.437	0.371	0.377	0.363	0.376	0.399	0.389	0.375	0.399
550																																																																																					0.392	0.367	0.423	0.430	0.366	0.372	0.358	0.371	0.394	0.384	0.370	0.394
551																																																																																					0.388	0.362	0.417	0.425	0.361	0.367	0.354	0.366	0.389	0.379	0.365	0.389
552																																																																																					0.383	0.358	0.411	0.419	0.357	0.362	0.349	0.361	0.384	0.374	0.361	0.385
553																																																																																					0.379	0.354	0.406	0.413	0.352	0.357	0.345	0.357	0.379	0.370	0.357	0.380
554																																																																																					0.374	0.349	0.400	0.408	0.347	0.353	0.341	0.352	0.374	0.365	0.353	0.376
555																																																																																					0.370	0.346	0.395	0.403	0.343	0.349	0.337	0.349	0.370	0.361	0.349	0.372
556																																																																																					0.365	0.341	0.389	0.397	0.339	0.344	0.333	0.344	0.365	0.357	0.345	0.368
557																																																																																					0.361	0.337	0.384	0.392	0.334	0.340	0.329	0.340	0.361	0.352	0.341	0.364
558																																																																																					0.356	0.333	0.379	0.386	0.330	0.335	0.324	0.335	0.356	0.348	0.337	0.359
559																																																																																					0.352	0.329	0.373	0.380	0.325	0.330	0.321	0.331	0.352	0.344	0.333	0.355
560																																																																																					0.349	0.326	0.369	0.376	0.321	0.327	0.317	0.328	0.348	0.340	0.330	0.351
561																																																																																					0.345	0.322	0.364	0.371	0.317	0.322	0.313	0.324	0.344	0.337	0.326	0.348
562																																																																																					0.341	0.319	0.359	0.366	0.313	0.319	0.310	0.320	0.340	0.333	0.323	0.344
563																																																																																					0.338	0.316	0.355	0.362	0.310	0.315	0.307	0.317	0.337	0.330	0.320	0.341
564																																																																																					0.335	0.312	0.351	0.357	0.306	0.312	0.303	0.314	0.334	0.327	0.317	0.338
565																																																																																					0.331	0.309	0.346	0.352	0.302	0.308	0.300	0.310	0.330	0.323	0.313	0.335
566																																																																																					0.328	0.306	0.342	0.348	0.299	0.304	0.297	0.306	0.326	0.320	0.310	0.332
567																																																																																					0.325	0.303	0.338	0.344	0.295	0.300	0.293	0.303	0.323	0.317	0.307	0.328
568																																																																																					0.322	0.300	0.334	0.340	0.292	0.297	0.291	0.300	0.320	0.314	0.305	0.326
569																																																																																					0.319	0.297	0.330	0.336	0.289	0.294	0.288	0.297	0.317	0.310	0.302	0.323
570																																																																																					0.316	0.295	0.326	0.333	0.286	0.291	0.285	0.295	0.314	0.308	0.299	0.320
571																																																																																					0.313	0.291	0.322	0.328	0.282	0.288	0.282	0.291	0.310	0.305	0.296	0.317
572																																																																																					0.311	0.289	0.319	0.325	0.280	0.285	0.279	0.289	0.308	0.302	0.294	0.315
573																																																																																					0.308	0.287	0.316	0.322	0.277	0.282	0.277	0.287	0.305	0.300	0.292	0.313
574																																																																																					0.306	0.285	0.312	0.318	0.275	0.280	0.275	0.284	0.303	0.298	0.290	0.311
575																																																																																					0.304	0.282	0.309	0.315	0.272	0.277	0.273	0.282	0.300	0.295	0.288	0.308
576																																																																																					0.302	0.281	0.306	0.312	0.270	0.275	0.271	0.280	0.298	0.293	0.286	0.306
577																																																																																					0.300	0.278	0.303	0.309	0.267	0.272	0.268	0.277	0.296	0.291	0.284	0.304
578																																																																																					0.298	0.276	0.300	0.306	0.265	0.270	0.266	0.275	0.293	0.289	0.282	0.302
579																																																																																					0.296	0.274	0.297	0.303	0.262	0.267	0.264	0.273	0.291	0.287	0.280	0.301
580																																																																																					0.294	0.273	0.295	0.300	0.260	0.265	0.262	0.271	0.289	0.285	0.279	0.299
581																																																																																					0.292	0.271	0.292	0.298	0.258	0.263	0.260	0.269	0.287	0.283	0.277	0.297
582																																																																																					0.291	0.269	0.290	0.295	0.256	0.261	0.258	0.267	0.286	0.282	0.276	0.296
583																																																																																					0.289	0.268	0.287	0.293	0.254	0.259	0.257	0.266	0.284	0.280	0.274	0.294
584																																																																																					0.288	0.266	0.285	0.290	0.252	0.257	0.255	0.264	0.282	0.279	0.273	0.293
585																																																																																					0.286	0.265	0.282	0.288	0.250	0.255	0.253	0.263	0.281	0.277	0.271	0.291
586																																																																																					0.285	0.263	0.280	0.285	0.248	0.254	0.252	0.261	0.279	0.276	0.270	0.290
587																																																																																					0.284	0.262	0.278	0.283	0.247	0.252	0.250	0.260	0.278	0.275	0.269	0.289
588																																																																																					0.283	0.261	0.277	0.282	0.245	0.251	0.249	0.259	0.277	0.274	0.268	0.289
589																																																																																					0.282	0.260	0.275	0.280	0.244	0.249	0.248	0.257	0.276	0.273	0.267	0.288
590																																																																																					0.281	0.259	0.273	0.278	0.243	0.248	0.247	0.256	0.274	0.272	0.267	0.287
591																																																																																					0.281	0.258	0.272	0.277	0.242	0.247	0.246	0.256	0.274	0.271	0.266	0.286
592																																																																																					0.280	0.257	0.270	0.275	0.240	0.246	0.244	0.255	0.273	0.270	0.265	0.286
593																																																																																					0.279	0.257	0.269	0.274	0.239	0.245	0.244	0.254	0.272	0.270	0.265	0.285
594																																																																																					0.279	0.256	0.267	0.272	0.238	0.244	0.243	0.253	0.271	0.269	0.264	0.285
595																																																																																					0.279	0.255	0.266	0.271	0.237	0.243	0.242	0.252	0.270	0.269	0.264	0.284
596																																																																																					0.279	0.255	0.265	0.270	0.236	0.242	0.241	0.252	0.270	0.268	0.263	0.284
597																																																																																					0.278	0.254	0.264	0.269	0.236	0.241	0.240	0.251	0.270	0.268	0.263	0.284
598																																																																																					0.278	0.254	0.263	0.268	0.235	0.240	0.240	0.251	0.269	0.268	0.263	0.284
599																																																																																					0.278	0.254	0.262	0.267	0.234	0.240	0.239	0.251	0.269	0.268	0.263	0.284
600																																																																																					0.278	0.254	0.261	0.266	0.233	0.239	0.239	0.250	0.269	0.267	0.263	0.284
601																																																																																					0.278	0.253	0.260	0.265	0.233	0.239	0.238	0.250	0.269	0.267	0.263	0.284
602																																																																																					0.279	0.253	0.259	0.264	0.232	0.238	0.237	0.250	0.269	0.267	0.263	0.285
603																																																																																					0.279	0.253	0.259	0.263	0.232	0.238	0.237	0.250	0.269	0.268	0.264	0.285
604																																																																																					0.279	0.253	0.258	0.263	0.232	0.238	0.237	0.250	0.269	0.268	0.264	0.286
605																																																																																					0.280	0.253	0.258	0.262	0.231	0.237	0.237	0.250	0.269	0.268	0.264	0.286
606																																																																																					0.280	0.253	0.257	0.262	0.231	0.237	0.237	0.250	0.269	0.268	0.265	0.286
607																																																																																					0.281	0.254	0.257	0.262	0.231	0.237	0.236	0.250	0.269	0.269	0.265	0.287
608																																																																																					0.281	0.254	0.257	0.261	0.231	0.237	0.236	0.250	0.270	0.269	0.266	0.288
609																																																																																					0.282	0.254	0.257	0.261	0.231	0.237	0.236	0.251	0.270	0.270	0.266	0.289
610																																																																																					0.283	0.255	0.257	0.261	0.231	0.237	0.236	0.251	0.271	0.271	0.267	0.290
611																																																																																					0.284	0.255	0.257	0.261	0.231	0.237	0.237	0.252	0.272	0.271	0.268	0.291
612																																																																																					0.285	0.256	0.257	0.261	0.231	0.237	0.237	0.252	0.272	0.272	0.269	0.292
613																																																																																					0.286	0.256	0.257	0.260	0.231	0.238	0.237	0.253	0.273	0.273	0.270	0.293
614																																																																																					0.287	0.257	0.257	0.260	0.231	0.238	0.237	0.253	0.274	0.274	0.271	0.294
615																																																																																					0.289	0.258	0.257	0.261	0.232	0.238	0.237	0.254	0.275	0.275	0.272	0.296
616																																																																																					0.290	0.259	0.258	0.261	0.232	0.239	0.238	0.255	0.276	0.276	0.274	0.297
617																																																																																					0.292	0.259	0.258	0.261	0.232	0.239	0.238	0.256	0.277	0.278	0.275	0.299
618																																																																																					0.293	0.260	0.258	0.262	0.233	0.240	0.238	0.257	0.278	0.279	0.276	0.301
619																																																																																					0.295	0.261	0.259	0.262	0.233	0.241	0.239	0.258	0.280	0.280	0.278	0.302
620																																																																																					0.297	0.263	0.259	0.262	0.234	0.241	0.240	0.259	0.281	0.282	0.280	0.304
621																																																																																					0.299	0.264	0.260	0.263	0.235	0.242	0.241	0.261	0.283	0.284	0.281	0.306
622																																																																																					0.301	0.265	0.261	0.264	0.236	0.243	0.241	0.262	0.285	0.285	0.283	0.308
623																																																																																					0.304	0.267	0.262	0.265	0.236	0.244	0.242	0.264	0.286	0.287	0.285	0.310
624																																																																																					0.306	0.268	0.263	0.266	0.237	0.245	0.243	0.265	0.288	0.289	0.287	0.313
625																																																																																					0.308	0.269	0.264	0.266	0.238	0.246	0.244	0.267	0.290	0.291	0.289	0.315
626																																																																																					0.310	0.271	0.265	0.267	0.239	0.248	0.245	0.268	0.292	0.293	0.291	0.317
627																																																																																					0.313	0.273	0.266	0.268	0.240	0.249	0.246	0.270	0.294	0.296	0.294	0.320
628																																																																																					0.316	0.274	0.267	0.269	0.242	0.250	0.247	0.272	0.296	0.298	0.296	0.323
629																																																																																					0.319	0.276	0.268	0.271	0.243	0.252	0.248	0.274	0.298	0.300	0.299	0.326
630																																																																																					0.322	0.278	0.270	0.272	0.244	0.253	0.249	0.276	0.301	0.303	0.301	0.329
631																																																																																					0.325	0.280	0.271	0.273	0.246	0.255	0.251	0.278	0.303	0.305	0.304	0.332
632																																																																																					0.328	0.282	0.273	0.275	0.247	0.256	0.252	0.281	0.306	0.308	0.307	0.335
633																																																																																					0.331	0.285	0.275	0.276	0.249	0.258	0.254	0.283	0.309	0.311	0.310	0.338
634																																																																																					0.334	0.286	0.276	0.278	0.250	0.260	0.255	0.285	0.311	0.314	0.313	0.342
635																																																																																					0.338	0.289	0.278	0.280	0.252	0.262	0.257	0.288	0.315	0.317	0.316	0.345
636																																																																																					0.342	0.292	0.280	0.281	0.254	0.264	0.259	0.291	0.318	0.320	0.320	0.349
637																																																																																					0.345	0.294	0.282	0.283	0.256	0.266	0.261	0.293	0.321	0.324	0.323	0.353
638																																																																																					0.349	0.297	0.285	0.286	0.258	0.268	0.263	0.296	0.324	0.327	0.327	0.357
639																																																																																					0.354	0.300	0.287	0.288	0.260	0.271	0.265	0.300	0.328	0.331	0.330	0.361
640																																																																																					0.358	0.303	0.290	0.290	0.262	0.273	0.267	0.303	0.332	0.335	0.335	0.365
641																																																																																					0.362	0.306	0.292	0.292	0.265	0.276	0.269	0.306	0.336	0.339	0.338	0.370
642																																																																																					0.367	0.309	0.295	0.295	0.267	0.278	0.271	0.309	0.340	0.343	0.343	0.374
643																																																																																					0.371	0.312	0.298	0.297	0.270	0.281	0.274	0.313	0.344	0.347	0.347	0.379
644																																																																																					0.376	0.316	0.300	0.300	0.272	0.284	0.276	0.317	0.348	0.351	0.351	0.384
645																																																																																					0.381	0.319	0.303	0.303	0.275	0.287	0.279	0.321	0.352	0.356	0.356	0.389
646																																																																																					0.386	0.323	0.306	0.306	0.278	0.290	0.281	0.324	0.356	0.360	0.360	0.394
647																																																																																					0.391	0.327	0.310	0.309	0.281	0.293	0.284	0.328	0.361	0.365	0.365	0.399
648																																																																																					0.397	0.331	0.313	0.312	0.284	0.296	0.287	0.332	0.366	0.369	0.370	0.405
649																																																																																					0.402	0.335	0.317	0.315	0.287	0.300	0.290	0.337	0.370	0.374	0.375	0.410
650																																																																																					0.408	0.339	0.320	0.318	0.290	0.303	0.293	0.341	0.375	0.379	0.380	0.415
651																																																																																					0.413	0.343	0.324	0.322	0.293	0.306	0.296	0.345	0.380	0.384	0.385	0.421
652																																																																																					0.419	0.347	0.327	0.325	0.296	0.310	0.299	0.349	0.385	0.389	0.390	0.426
653																																																																																					0.424	0.350	0.330	0.328	0.299	0.313	0.302	0.353	0.389	0.394	0.394	0.431
654																																																																																					0.429	0.355	0.334	0.332	0.302	0.317	0.305	0.358	0.394	0.399	0.399	0.437
655																																																																																					0.435	0.359	0.338	0.336	0.306	0.321	0.309	0.362	0.400	0.404	0.405	0.443
656																																																																																					0.441	0.364	0.342	0.339	0.309	0.324	0.312	0.367	0.405	0.410	0.410	0.449
657																																																																																					0.448	0.369	0.346	0.344	0.313	0.329	0.316	0.372	0.411	0.415	0.416	0.456
658																																																																																					0.454	0.373	0.351	0.348	0.317	0.333	0.320	0.377	0.416	0.421	0.422	0.462
659																																																																																					0.461	0.378	0.355	0.352	0.321	0.337	0.323	0.382	0.422	0.427	0.428	0.468
660																																																																																					0.466	0.383	0.359	0.356	0.325	0.341	0.327	0.387	0.427	0.432	0.433	0.473
661																																																																																					0.473	0.388	0.364	0.360	0.329	0.345	0.331	0.392	0.433	0.438	0.439	0.480
662																																																																																					0.480	0.393	0.369	0.365	0.333	0.350	0.335	0.398	0.439	0.444	0.445	0.487
663																																																																																					0.486	0.398	0.373	0.369	0.337	0.354	0.339	0.403	0.445	0.450	0.451	0.493
664																																																																																					0.493	0.404	0.378	0.374	0.341	0.359	0.343	0.409	0.451	0.457	0.457	0.500
665																																																																																					0.500	0.409	0.383	0.378	0.346	0.363	0.347	0.414	0.457	0.462	0.463	0.506
666																																																																																					0.506	0.413	0.387	0.383	0.349	0.367	0.351	0.419	0.463	0.468	0.468	0.512
667																																																																																					0.513	0.419	0.393	0.388	0.354	0.373	0.356	0.425	0.469	0.475	0.475	0.519
668																																																																																					0.520	0.424	0.398	0.393	0.359	0.378	0.360	0.431	0.476	0.481	0.481	0.526
669																																																																																					0.527	0.430	0.404	0.398	0.363	0.382	0.364	0.436	0.482	0.487	0.488	0.533
670																																																																																					0.534	0.435	0.409	0.403	0.368	0.387	0.369	0.442	0.489	0.494	0.494	0.540
671																																																																																					0.541	0.441	0.414	0.408	0.373	0.392	0.373	0.448	0.495	0.500	0.500	0.547
672																																																																																					0.548	0.446	0.420	0.413	0.377	0.397	0.378	0.453	0.501	0.506	0.506	0.553
673																																																																																					0.555	0.452	0.425	0.418	0.382	0.402	0.382	0.460	0.508	0.513	0.513	0.560
674																																																																																					0.563	0.458	0.431	0.424	0.388	0.408	0.387	0.466	0.515	0.521	0.520	0.568
675																																																																																					0.570	0.464	0.437	0.430	0.393	0.413	0.392	0.472	0.522	0.527	0.527	0.575
676																																																																																					0.578	0.470	0.443	0.436	0.398	0.419	0.397	0.479	0.529	0.534	0.534	0.582
677																																																																																					0.585	0.475	0.449	0.441	0.403	0.425	0.402	0.485	0.536	0.541	0.541	0.589
678																																																																																					0.593	0.481	0.455	0.447	0.408	0.430	0.407	0.491	0.543	0.548	0.548	0.597
679																																																																																					0.600	0.487	0.462	0.453	0.413	0.436	0.412	0.498	0.550	0.555	0.554	0.604
680																																																																																					0.608	0.493	0.468	0.459	0.419	0.442	0.417	0.504	0.558	0.563	0.562	0.612
681																																																																																					0.616	0.499	0.475	0.465	0.424	0.448	0.422	0.511	0.565	0.570	0.569	0.619
682																																																																																					0.624	0.505	0.481	0.471	0.430	0.454	0.428	0.518	0.572	0.577	0.576	0.626
683																																																																																					0.631	0.512	0.488	0.477	0.436	0.460	0.433	0.525	0.580	0.585	0.583	0.634
684																																																																																					0.639	0.518	0.494	0.484	0.442	0.466	0.438	0.531	0.587	0.592	0.591	0.642
685																																																																																					0.647	0.524	0.502	0.491	0.448	0.472	0.444	0.539	0.595	0.600	0.599	0.650
686																																																																																					0.656	0.531	0.510	0.498	0.454	0.479	0.450	0.546	0.604	0.609	0.607	0.658
687																																																																																					0.665	0.538	0.517	0.505	0.461	0.486	0.456	0.554	0.612	0.617	0.615	0.667
688																																																																																					0.674	0.545	0.524	0.512	0.467	0.493	0.462	0.562	0.621	0.625	0.623	0.675
689																																																																																					0.682	0.552	0.532	0.520	0.474	0.500	0.468	0.570	0.629	0.633	0.631	0.684
690																																																																																					0.690	0.558	0.539	0.527	0.480	0.507	0.473	0.577	0.637	0.641	0.639	0.692
691																																																																																					0.699	0.565	0.547	0.534	0.486	0.513	0.479	0.584	0.645	0.649	0.647	0.700
692																																																																																					0.707	0.572	0.555	0.541	0.493	0.520	0.485	0.592	0.654	0.658	0.655	0.709
693																																																																																					0.716	0.579	0.563	0.549	0.500	0.528	0.492	0.601	0.663	0.667	0.664	0.718
694																																																																																					0.725	0.586	0.572	0.557	0.507	0.535	0.498	0.609	0.672	0.676	0.673	0.727
695																																																																																					0.734	0.593	0.580	0.565	0.514	0.543	0.504	0.617	0.681	0.684	0.681	0.736
696																																																																																					0.743	0.601	0.588	0.573	0.521	0.550	0.511	0.625	0.690	0.694	0.690	0.745
697																																																																																					0.753	0.609	0.598	0.582	0.529	0.559	0.518	0.635	0.700	0.703	0.699	0.755
698																																																																																					0.761	0.616	0.605	0.589	0.536	0.566	0.525	0.642	0.708	0.712	0.707	0.763
699																																																																																					0.769	0.623	0.614	0.597	0.543	0.574	0.531	0.650	0.717	0.720	0.716	0.772
700																																																																																					0.778	0.630	0.622	0.605	0.550	0.580	0.537	0.658	0.726	0.729	0.724	0.780
701																																																																																					0.787	0.637	0.630	0.613	0.557	0.588	0.544	0.667	0.735	0.738	0.732	0.790
702																																																																																					0.795	0.645	0.639	0.622	0.565	0.596	0.552	0.676	0.745	0.747	0.741	0.799
703																																																																																					0.805	0.654	0.649	0.632	0.573	0.605	0.560	0.685	0.755	0.757	0.751	0.809
704																																																																																					0.814	0.662	0.657	0.640	0.581	0.613	0.567	0.694	0.764	0.767	0.759	0.818
705																																																																																					0.823	0.670	0.666	0.649	0.588	0.621	0.574	0.703	0.774	0.776	0.768	0.827
706																																																																																					0.831	0.678	0.675	0.658	0.596	0.629	0.582	0.711	0.783	0.785	0.777	0.836
707																																																																																					0.841	0.686	0.685	0.667	0.604	0.638	0.590	0.720	0.793	0.794	0.786	0.845
708																																																																																					0.849	0.694	0.693	0.676	0.612	0.646	0.597	0.729	0.802	0.803	0.793	0.854
709																																																																																					0.858	0.703	0.702	0.686	0.620	0.654	0.605	0.738	0.812	0.813	0.803	0.863
710																																																																																					0.866	0.710	0.711	0.694	0.628	0.662	0.613	0.746	0.821	0.822	0.811	0.872
711																																																																																					0.875	0.719	0.720	0.703	0.636	0.671	0.621	0.755	0.831	0.831	0.819	0.881
712																																																																																					0.883	0.727	0.728	0.712	0.643	0.678	0.628	0.763	0.839	0.840	0.827	0.889
713																																																																																					0.892	0.736	0.738	0.721	0.651	0.687	0.636	0.772	0.849	0.849	0.835	0.898
714																																																																																					0.900	0.744	0.746	0.731	0.659	0.695	0.645	0.780	0.858	0.858	0.843	0.907
715																																																																																					0.908	0.752	0.755	0.740	0.667	0.703	0.653	0.789	0.867	0.866	0.851	0.916
716																																																																																					0.916	0.760	0.764	0.749	0.675	0.711	0.661	0.797	0.876	0.875	0.858	0.924
717																																																																																					0.924	0.769	0.773	0.758	0.682	0.719	0.669	0.805	0.884	0.883	0.866	0.932
718																																																																																					0.931	0.777	0.781	0.767	0.690	0.727	0.677	0.813	0.893	0.891	0.873	0.940
719																																																																																					0.939	0.785	0.790	0.776	0.698	0.735	0.686	0.821	0.901	0.899	0.880	0.948
720																																																																																					0.946	0.793	0.798	0.785	0.705	0.742	0.693	0.829	0.909	0.906	0.886	0.955
721																																																																																					0.954	0.802	0.807	0.795	0.713	0.750	0.702	0.837	0.918	0.915	0.893	0.963
722																																																																																					0.962	0.810	0.816	0.804	0.721	0.758	0.711	0.845	0.926	0.923	0.901	0.971
723																																																																																					0.968	0.819	0.824	0.813	0.728	0.765	0.719	0.853	0.934	0.930	0.907	0.978
724																																																																																					0.975	0.827	0.832	0.822	0.735	0.772	0.727	0.860	0.942	0.938	0.913	0.985
725																																																																																					0.982	0.835	0.841	0.831	0.743	0.780	0.735	0.867	0.950	0.945	0.920	0.992
726																																																																																					0.988	0.843	0.849	0.839	0.750	0.787	0.743	0.874	0.958	0.952	0.926	0.998
727																																																																																					0.995	0.851	0.857	0.848	0.757	0.795	0.751	0.881	0.965	0.959	0.932	1.005
728																																																																																					1.001	0.859	0.865	0.857	0.764	0.802	0.759	0.888	0.972	0.966	0.938	1.011
729																																																																																					1.007	0.867	0.873	0.865	0.771	0.808	0.767	0.895	0.979	0.972	0.943	1.018
730																																																																																					1.013	0.875	0.880	0.874	0.778	0.815	0.775	0.902	0.986	0.979	0.949	1.023
731																																																																																					1.019	0.882	0.888	0.882	0.785	0.823	0.783	0.909	0.993	0.985	0.954	1.029
732																																																																																					1.024	0.890	0.896	0.890	0.791	0.829	0.790	0.915	1.000	0.991	0.959	1.035
733																																																																																					1.030	0.897	0.903	0.898	0.798	0.835	0.798	0.921	1.006	0.997	0.965	1.040
734																																																																																					1.035	0.904	0.910	0.906	0.804	0.841	0.805	0.927	1.012	1.002	0.969	1.045
735																																																																																					1.040	0.911	0.917	0.914	0.810	0.848	0.812	0.932	1.018	1.008	0.974	1.050
736																																																																																					1.045	0.918	0.925	0.922	0.816	0.854	0.819	0.939	1.024	1.014	0.979	1.056
737																																																																																					1.049	0.925	0.931	0.929	0.822	0.860	0.826	0.944	1.030	1.019	0.983	1.060
738																																																																																					1.054	0.931	0.939	0.937	0.829	0.866	0.834	0.950	1.036	1.024	0.988	1.065
739																																																																																					1.059	0.938	0.946	0.945	0.835	0.872	0.840	0.956	1.042	1.029	0.992	1.070
740																																																																																					1.063	0.944	0.952	0.951	0.840	0.877	0.846	0.960	1.047	1.034	0.996	1.074
741																																																																																					1.067	0.949	0.958	0.958	0.845	0.883	0.852	0.965	1.052	1.038	0.999	1.077
742																																																																																					1.070	0.955	0.965	0.965	0.851	0.888	0.858	0.970	1.056	1.043	1.003	1.081
743																																																																																					1.074	0.960	0.971	0.971	0.856	0.893	0.864	0.974	1.061	1.047	1.006	1.085
744																																																																																					1.078	0.966	0.977	0.978	0.861	0.898	0.870	0.979	1.066	1.051	1.010	1.089
745																																																																																					1.081	0.971	0.983	0.984	0.866	0.903	0.875	0.983	1.070	1.055	1.013	1.092
746																																																																																					1.084	0.976	0.989	0.990	0.871	0.908	0.881	0.988	1.075	1.059	1.017	1.095
747																																																																																					1.087	0.981	0.995	0.997	0.875	0.913	0.886	0.992	1.079	1.063	1.020	1.098
748																																																																																					1.091	0.985	1.000	1.003	0.880	0.918	0.891	0.996	1.083	1.067	1.023	1.101
749																																																																																					1.094	0.990	1.006	1.008	0.885	0.923	0.896	1.000	1.087	1.070	1.026	1.105
750																																																																																					1.097	0.994	1.012	1.014	0.890	0.927	0.901	1.004	1.091	1.074	1.029	1.108
751																																																																																					1.099	0.998	1.017	1.020	0.894	0.932	0.905	1.008	1.095	1.077	1.032	1.110
752																																																																																					1.101	1.002	1.022	1.025	0.898	0.936	0.910	1.012	1.099	1.081	1.035	1.113
753																																																																																					1.104	1.005	1.027	1.030	0.902	0.940	0.914	1.015	1.102	1.084	1.038	1.116
754																																																																																					1.106	1.009	1.032	1.036	0.906	0.944	0.918	1.019	1.106	1.087	1.040	1.118
755																																																																																					1.109	1.013	1.038	1.041	0.911	0.949	0.923	1.023	1.110	1.091	1.043	1.121
756																																																																																					1.111	1.016	1.043	1.046	0.915	0.953	0.927	1.026	1.113	1.094	1.046	1.123
757																																																																																					1.114	1.020	1.048	1.052	0.919	0.957	0.931	1.030	1.117	1.097	1.049	1.126
758																																																																																					1.116	1.023	1.053	1.057	0.923	0.961	0.935	1.033	1.121	1.100	1.052	1.129
759																																																																																					1.118	1.027	1.058	1.062	0.927	0.965	0.939	1.037	1.124	1.104	1.054	1.131
760																																																																																					1.120	1.030	1.063	1.067	0.931	0.970	0.943	1.040	1.128	1.107	1.057	1.134
761																																																																																					1.122	1.033	1.069	1.073	0.936	0.974	0.947	1.044	1.131	1.110	1.060	1.136
762																																																																																					1.124	1.036	1.074	1.078	0.940	0.978	0.951	1.048	1.135	1.113	1.063	1.139
763																																																																																					1.126	1.039	1.079	1.084	0.945	0.983	0.955	1.052	1.139	1.117	1.065	1.141
764																																																																																					1.128	1.042	1.083	1.088	0.948	0.986	0.958	1.054	1.142	1.119	1.067	1.143
765																																																																																					1.129	1.044	1.087	1.092	0.951	0.989	0.961	1.057	1.144	1.121	1.069	1.145
766																																																																																					1.131	1.046	1.091	1.096	0.954	0.992	0.964	1.060	1.147	1.124	1.071	1.148
767																																																																																					1.133	1.049	1.096	1.101	0.958	0.996	0.968	1.063	1.150	1.127	1.074	1.150
768																																																																																					1.134	1.052	1.101	1.106	0.962	1.000	0.971	1.066	1.153	1.130	1.076	1.152
769																																																																																					1.136	1.054	1.105	1.111	0.966	1.004	0.974	1.070	1.157	1.133	1.079	1.154
770																																																																																					1.137	1.057	1.110	1.115	0.970	1.008	0.978	1.073	1.160	1.135	1.081	1.156
771																																																																																					1.138	1.059	1.114	1.120	0.973	1.011	0.981	1.075	1.162	1.138	1.083	1.158
772																																																																																					1.139	1.061	1.118	1.124	0.976	1.015	0.984	1.078	1.165	1.140	1.085	1.160
773																																																																																					1.140	1.063	1.122	1.129	0.980	1.018	0.987	1.081	1.168	1.143	1.086	1.161
774																																																																																					1.141	1.066	1.126	1.133	0.983	1.021	0.991	1.084	1.171	1.145	1.088	1.163
775																																																																																					1.142	1.068	1.130	1.138	0.987	1.025	0.994	1.087	1.173	1.148	1.090	1.165
776																																																																																					1.143	1.070	1.134	1.142	0.991	1.028	0.997	1.089	1.176	1.150	1.092	1.167
777																																																																																					1.144	1.072	1.137	1.146	0.993	1.031	1.000	1.091	1.178	1.152	1.093	1.168
778																																																																																					1.145	1.074	1.141	1.150	0.997	1.035	1.003	1.094	1.181	1.154	1.095	1.169
779																																																																																					1.145	1.076	1.145	1.154	1.000	1.038	1.006	1.097	1.183	1.156	1.096	1.171
780																																																																																					1.146	1.078	1.148	1.158	1.003	1.040	1.009	1.099	1.185	1.158	1.097	1.172
781																																																																																					1.146	1.080	1.152	1.163	1.006	1.044	1.012	1.101	1.188	1.160	1.099	1.174
782																																																																																					1.146	1.082	1.155	1.167	1.009	1.047	1.015	1.103	1.189	1.161	1.099	1.175
783																																																																																					1.146	1.083	1.159	1.170	1.012	1.049	1.018	1.106	1.191	1.163	1.100	1.175
784																																																																																					1.147	1.085	1.162	1.174	1.014	1.052	1.021	1.107	1.193	1.164	1.101	1.176
785																																																																																					1.146	1.087	1.165	1.178	1.017	1.054	1.024	1.109	1.195	1.166	1.101	1.177
786																																																																																					1.146	1.088	1.168	1.181	1.020	1.057	1.027	1.111	1.196	1.167	1.102	1.177
787																																																																																					1.146	1.090	1.170	1.185	1.022	1.059	1.029	1.112	1.198	1.168	1.102	1.177
788																																																																																					1.146	1.091	1.173	1.188	1.024	1.062	1.032	1.114	1.199	1.169	1.102	1.178
789																																																																																					1.145	1.093	1.175	1.191	1.026	1.063	1.035	1.115	1.200	1.169	1.103	1.178
790																																																																																					1.145	1.094	1.177	1.194	1.028	1.065	1.037	1.116	1.200	1.170	1.102	1.178
791																																																																																					1.144	1.095	1.180	1.197	1.030	1.067	1.040	1.117	1.201	1.170	1.102	1.178
792																																																																																					1.143	1.097	1.182	1.200	1.032	1.069	1.042	1.118	1.202	1.171	1.102	1.178
793																																																																																					1.142	1.098	1.183	1.203	1.034	1.070	1.044	1.118	1.202	1.171	1.101	1.177
794																																																																																					1.141	1.099	1.185	1.205	1.036	1.072	1.046	1.119	1.203	1.171	1.101	1.177
795																																																																																					1.139	1.100	1.187	1.208	1.037	1.073	1.049	1.119	1.203	1.170	1.099	1.176
796																																																																																					1.138	1.101	1.188	1.210	1.038	1.074	1.051	1.120	1.203	1.170	1.099	1.175
797																																																																																					1.137	1.101	1.190	1.212	1.040	1.075	1.053	1.120	1.202	1.169	1.098	1.174
798																																																																																					1.135	1.102	1.191	1.214	1.040	1.076	1.055	1.120	1.202	1.169	1.096	1.173
799																																																																																					1.134	1.103	1.192	1.216	1.042	1.077	1.057	1.120	1.202	1.168	1.095	1.172
800																																																																																					1.132	1.103	1.192	1.218	1.042	1.077	1.058	1.119	1.201	1.167	1.094	1.170
801																																																																																					1.130	1.104	1.193	1.219	1.043	1.077	1.060	1.119	1.201	1.166	1.092	1.168
802																																																																																					1.128	1.104	1.194	1.220	1.044	1.077	1.061	1.118	1.199	1.165	1.090	1.167
803																																																																																					1.126	1.104	1.194	1.221	1.044	1.078	1.062	1.117	1.198	1.163	1.089	1.165
804																																																																																					1.124	1.104	1.194	1.223	1.044	1.078	1.064	1.117	1.198	1.162	1.087	1.163
805																																																																																					1.121	1.105	1.194	1.223	1.044	1.078	1.065	1.115	1.196	1.161	1.085	1.161
806																																																																																					1.120	1.104	1.195	1.224	1.045	1.078	1.066	1.115	1.195	1.159	1.083	1.159
807																																																																																					1.117	1.104	1.194	1.225	1.044	1.077	1.067	1.113	1.193	1.157	1.081	1.156
808																																																																																					1.115	1.104	1.194	1.225	1.044	1.077	1.067	1.112	1.192	1.155	1.079	1.155
809																																																																																					1.112	1.104	1.194	1.226	1.044	1.076	1.068	1.111	1.190	1.153	1.076	1.152
810																																																																																					1.110	1.104	1.194	1.226	1.044	1.076	1.069	1.110	1.188	1.151	1.074	1.150
811																																																																																					1.107	1.103	1.194	1.226	1.044	1.075	1.069	1.108	1.187	1.149	1.071	1.147
812																																																																																					1.105	1.103	1.193	1.226	1.043	1.074	1.070	1.106	1.185	1.147	1.069	1.145
813																																																																																					1.102	1.102	1.192	1.226	1.042	1.074	1.070	1.104	1.182	1.144	1.067	1.142
814																																																																																					1.099	1.102	1.191	1.226	1.042	1.073	1.070	1.103	1.180	1.142	1.064	1.139
815																																																																																					1.096	1.101	1.190	1.226	1.041	1.071	1.070	1.101	1.178	1.139	1.061	1.136
816																																																																																					1.093	1.100	1.189	1.225	1.040	1.070	1.070	1.099	1.175	1.137	1.058	1.133
817																																																																																					1.091	1.099	1.188	1.225	1.039	1.069	1.070	1.097	1.173	1.134	1.056	1.130
818																																																																																					1.087	1.098	1.188	1.224	1.038	1.068	1.070	1.094	1.170	1.131	1.052	1.126
819																																																																																					1.084	1.097	1.186	1.223	1.036	1.066	1.069	1.092	1.168	1.128	1.049	1.123
820																																																																																					1.080	1.095	1.185	1.222	1.035	1.065	1.068	1.089	1.165	1.125	1.046	1.118
821																																																																																					1.075	1.094	1.183	1.221	1.033	1.063	1.067	1.086	1.162	1.121	1.042	1.113
822																																																																																					1.073	1.093	1.182	1.220	1.032	1.062	1.067	1.084	1.159	1.119	1.040	1.112
823																																																																																					1.072	1.092	1.181	1.220	1.032	1.061	1.068	1.083	1.157	1.118	1.038	1.111
824																																																																																					1.071	1.091	1.181	1.220	1.031	1.060	1.068	1.083	1.156	1.116	1.037	1.110
825																																																																																					1.069	1.091	1.180	1.219	1.031	1.059	1.067	1.081	1.154	1.115	1.035	1.108
826																																																																																					1.066	1.089	1.179	1.218	1.029	1.058	1.067	1.079	1.151	1.112	1.032	1.105
827																																																																																					1.062	1.088	1.177	1.217	1.028	1.056	1.066	1.076	1.148	1.108	1.028	1.101
828																																																																																					1.059	1.087	1.176	1.216	1.026	1.054	1.065	1.073	1.146	1.105	1.026	1.098
829																																																																																					1.058	1.086	1.175	1.216	1.026	1.053	1.065	1.072	1.144	1.104	1.024	1.096
830																																																																																					1.056	1.085	1.174	1.215	1.025	1.052	1.064	1.070	1.142	1.101	1.022	1.094
831																																																																																					1.052	1.083	1.172	1.214	1.023	1.051	1.063	1.068	1.139	1.099	1.019	1.091
832																																																																																					1.047	1.081	1.170	1.212	1.021	1.048	1.061	1.064	1.135	1.094	1.014	1.085
833																																																																																					1.043	1.079	1.168	1.210	1.019	1.046	1.060	1.061	1.132	1.091	1.011	1.081
834																																																																																					1.041	1.077	1.167	1.209	1.018	1.045	1.059	1.059	1.129	1.089	1.009	1.079
835																																																																																					1.039	1.076	1.166	1.208	1.017	1.044	1.058	1.058	1.128	1.087	1.007	1.077
836																																																																																					1.037	1.075	1.165	1.207	1.016	1.042	1.058	1.056	1.125	1.085	1.004	1.075
837																																																																																					1.034	1.073	1.163	1.206	1.014	1.040	1.056	1.054	1.122	1.081	1.002	1.072
838																																																																																					1.030	1.071	1.160	1.204	1.012	1.038	1.054	1.051	1.119	1.078	0.998	1.067
839																																																																																					1.025	1.068	1.158	1.202	1.010	1.036	1.052	1.047	1.116	1.074	0.995	1.063
840																																																																																					1.022	1.066	1.156	1.200	1.008	1.034	1.051	1.045	1.113	1.071	0.992	1.060
841																																																																																					1.019	1.065	1.155	1.198	1.007	1.032	1.050	1.043	1.110	1.069	0.989	1.058
842																																																																																					1.017	1.063	1.153	1.197	1.005	1.030	1.048	1.040	1.107	1.066	0.986	1.055
843																																																																																					1.013	1.060	1.151	1.195	1.004	1.028	1.046	1.038	1.105	1.063	0.984	1.052
844																																																																																					1.010	1.059	1.149	1.194	1.002	1.026	1.045	1.035	1.102	1.060	0.981	1.049
845																																																																																					1.006	1.056	1.147	1.192	0.999	1.024	1.043	1.032	1.099	1.057	0.977	1.045
846																																																																																					1.003	1.054	1.144	1.190	0.997	1.022	1.041	1.029	1.095	1.054	0.974	1.041
847																																																																																					0.999	1.052	1.142	1.188	0.996	1.020	1.039	1.026	1.092	1.050	0.971	1.038
848																																																																																					0.996	1.050	1.140	1.186	0.994	1.018	1.038	1.024	1.090	1.048	0.969	1.035
849																																																																																					0.993	1.047	1.138	1.184	0.992	1.016	1.036	1.022	1.087	1.045	0.966	1.032
850																																																																																					0.990	1.045	1.136	1.182	0.990	1.014	1.035	1.019	1.084	1.042	0.963	1.029
851																																																																																					0.987	1.043	1.134	1.180	0.988	1.012	1.033	1.016	1.081	1.039	0.960	1.026
852																																																																																					0.983	1.041	1.132	1.179	0.987	1.010	1.032	1.014	1.078	1.036	0.957	1.023
853																																																																																					0.980	1.039	1.130	1.177	0.984	1.008	1.030	1.011	1.075	1.033	0.954	1.020
854																																																																																					0.976	1.036	1.127	1.174	0.982	1.006	1.028	1.008	1.072	1.030	0.951	1.016
855																																																																																					0.973	1.034	1.125	1.173	0.981	1.004	1.026	1.006	1.069	1.027	0.948	1.013
856																																																																																					0.970	1.032	1.123	1.170	0.978	1.002	1.024	1.003	1.066	1.024	0.945	1.010
857																																																																																					0.967	1.030	1.121	1.169	0.977	0.999	1.023	1.000	1.063	1.021	0.942	1.007
858																																																																																					0.964	1.027	1.118	1.167	0.975	0.997	1.021	0.998	1.060	1.018	0.939	1.004
859																																																																																					0.960	1.025	1.116	1.165	0.973	0.995	1.020	0.995	1.057	1.015	0.936	1.000
860																																																																																					0.957	1.023	1.114	1.163	0.971	0.993	1.018	0.993	1.054	1.012	0.933	0.997
861																																																																																					0.954	1.021	1.111	1.161	0.969	0.991	1.017	0.990	1.052	1.009	0.930	0.995
862																																																																																					0.951	1.019	1.109	1.159	0.967	0.989	1.015	0.987	1.049	1.006	0.927	0.992
863																																																																																					0.948	1.017	1.107	1.157	0.965	0.987	1.014	0.985	1.046	1.004	0.924	0.988
864																																																																																					0.945	1.015	1.105	1.155	0.963	0.985	1.012	0.982	1.043	1.000	0.921	0.986
865																																																																																					0.942	1.013	1.103	1.153	0.961	0.983	1.011	0.980	1.040	0.998	0.918	0.982
866																																																																																					0.938	1.011	1.100	1.152	0.959	0.981	1.009	0.977	1.037	0.995	0.915	0.980
867																																																																																					0.936	1.009	1.099	1.150	0.958	0.979	1.008	0.975	1.035	0.992	0.913	0.977
868																																																																																					0.932	1.007	1.095	1.148	0.955	0.977	1.006	0.972	1.031	0.989	0.910	0.974
869																																																																																					0.929	1.005	1.093	1.146	0.954	0.975	1.005	0.969	1.029	0.987	0.907	0.971
870																																																																																					0.926	1.002	1.091	1.144	0.952	0.973	1.003	0.967	1.026	0.984	0.904	0.968
871																																																																																					0.923	1.001	1.089	1.142	0.950	0.971	1.002	0.964	1.023	0.981	0.901	0.965
872																																																																																					0.921	0.999	1.087	1.140	0.948	0.969	1.001	0.962	1.021	0.979	0.899	0.962
873																																																																																					0.917	0.997	1.085	1.138	0.946	0.967	1.000	0.959	1.018	0.976	0.895	0.959
874																																																																																					0.915	0.995	1.082	1.136	0.944	0.965	0.998	0.957	1.015	0.973	0.893	0.957
875																																																																																					0.911	0.993	1.079	1.134	0.942	0.962	0.997	0.954	1.012	0.969	0.889	0.953
876																																																																																					0.908	0.991	1.077	1.132	0.939	0.960	0.995	0.951	1.009	0.966	0.886	0.950
877																																																																																					0.904	0.988	1.074	1.129	0.937	0.957	0.993	0.948	1.006	0.963	0.883	0.946
878																																																																																					0.899	0.985	1.070	1.126	0.934	0.954	0.990	0.944	1.001	0.959	0.879	0.941
879																																																																																					0.894	0.982	1.066	1.122	0.930	0.950	0.987	0.939	0.997	0.954	0.874	0.935
880																																																																																					0.890	0.979	1.063	1.119	0.927	0.947	0.985	0.936	0.993	0.950	0.870	0.931
881																																																																																					0.888	0.978	1.060	1.117	0.926	0.945	0.984	0.934	0.990	0.947	0.868	0.930
882																																																																																					0.887	0.977	1.058	1.116	0.924	0.943	0.984	0.932	0.988	0.945	0.866	0.929
883																																																																																					0.886	0.976	1.057	1.115	0.923	0.942	0.983	0.931	0.986	0.944	0.865	0.928
884																																																																																					0.884	0.974	1.055	1.113	0.922	0.941	0.983	0.930	0.984	0.942	0.863	0.927
885																																																																																					0.881	0.972	1.053	1.111	0.920	0.938	0.981	0.927	0.981	0.939	0.860	0.924
886																																																																																					0.876	0.969	1.048	1.107	0.916	0.934	0.978	0.923	0.977	0.934	0.855	0.918
887																																																																																					0.871	0.966	1.044	1.104	0.913	0.931	0.975	0.919	0.972	0.930	0.851	0.914
888																																																																																					0.868	0.964	1.041	1.101	0.911	0.928	0.973	0.916	0.969	0.926	0.848	0.910
889																																																																																					0.864	0.962	1.038	1.098	0.908	0.925	0.971	0.912	0.966	0.923	0.845	0.906
890																																																																																					0.860	0.959	1.035	1.095	0.905	0.922	0.969	0.909	0.962	0.920	0.841	0.903
891																																																																																					0.857	0.957	1.032	1.093	0.903	0.919	0.967	0.906	0.958	0.916	0.838	0.899
892																																																																																					0.853	0.954	1.028	1.089	0.899	0.916	0.964	0.902	0.955	0.912	0.834	0.895
893																																																																																					0.848	0.951	1.024	1.086	0.896	0.912	0.961	0.898	0.950	0.907	0.830	0.889
894																																																																																					0.845	0.949	1.021	1.083	0.894	0.910	0.959	0.895	0.947	0.904	0.827	0.887
895																																																																																					0.843	0.947	1.019	1.081	0.892	0.908	0.959	0.893	0.945	0.902	0.824	0.885
896																																																																																					0.842	0.946	1.018	1.080	0.891	0.907	0.958	0.892	0.943	0.900	0.823	0.884
897																																																																																					0.840	0.944	1.015	1.078	0.889	0.904	0.957	0.890	0.940	0.898	0.820	0.882
898																																																																																					0.838	0.942	1.013	1.075	0.887	0.902	0.955	0.887	0.937	0.895	0.818	0.880
899																																																																																					0.833	0.939	1.009	1.072	0.883	0.899	0.952	0.883	0.933	0.891	0.814	0.875
900																																																																																					0.829	0.936	1.006	1.069	0.881	0.896	0.950	0.880	0.929	0.887	0.810	0.871
901																																																																																					0.825	0.933	1.002	1.065	0.877	0.893	0.947	0.876	0.926	0.883	0.807	0.866
902																																																																																					0.820	0.930	0.998	1.062	0.874	0.889	0.944	0.872	0.922	0.879	0.803	0.861
903																																																																																					0.817	0.928	0.995	1.059	0.871	0.886	0.942	0.869	0.918	0.875	0.799	0.858
904																																																																																					0.815	0.926	0.992	1.056	0.869	0.884	0.941	0.866	0.915	0.873	0.797	0.857
905																																																																																					0.814	0.925	0.991	1.055	0.868	0.883	0.940	0.865	0.914	0.872	0.795	0.856
906																																																																																					0.813	0.923	0.989	1.054	0.867	0.881	0.940	0.864	0.912	0.870	0.794	0.855
907																																																																																					0.811	0.922	0.987	1.051	0.865	0.879	0.938	0.862	0.909	0.868	0.792	0.853
908																																																																																					0.807	0.919	0.983	1.048	0.862	0.876	0.936	0.858	0.906	0.864	0.788	0.849
909																																																																																					0.803	0.916	0.979	1.045	0.859	0.873	0.933	0.854	0.902	0.861	0.785	0.845
910																																																																																					0.799	0.913	0.976	1.042	0.856	0.869	0.930	0.851	0.898	0.856	0.781	0.840
911																																																																																					0.796	0.911	0.973	1.039	0.853	0.867	0.928	0.848	0.895	0.853	0.778	0.837
912																																																																																					0.792	0.908	0.969	1.035	0.850	0.864	0.925	0.844	0.891	0.850	0.775	0.833
913																																																																																					0.788	0.905	0.966	1.032	0.847	0.861	0.922	0.841	0.888	0.846	0.772	0.829
914																																																																																					0.785	0.903	0.962	1.029	0.844	0.858	0.920	0.837	0.884	0.842	0.768	0.825
915																																																																																					0.783	0.901	0.960	1.027	0.842	0.856	0.918	0.835	0.882	0.840	0.766	0.823
916																																																																																					0.782	0.900	0.959	1.025	0.841	0.854	0.918	0.834	0.880	0.838	0.764	0.823
917																																																																																					0.781	0.899	0.957	1.024	0.840	0.853	0.918	0.833	0.879	0.838	0.763	0.823
918																																																																																					0.780	0.898	0.956	1.022	0.839	0.852	0.917	0.832	0.877	0.836	0.762	0.822
919																																																																																					0.779	0.897	0.954	1.021	0.838	0.850	0.916	0.830	0.875	0.835	0.760	0.820
920																																																																																					0.776	0.894	0.951	1.018	0.835	0.848	0.914	0.827	0.872	0.832	0.758	0.817
921																																																																																					0.772	0.892	0.948	1.015	0.832	0.845	0.911	0.824	0.869	0.828	0.755	0.814
922																																																																																					0.770	0.890	0.946	1.013	0.830	0.843	0.910	0.822	0.867	0.826	0.752	0.811
923																																																																																					0.768	0.888	0.943	1.011	0.828	0.841	0.908	0.820	0.865	0.824	0.750	0.809
924																																																																																					0.766	0.887	0.941	1.009	0.827	0.839	0.907	0.818	0.863	0.822	0.749	0.807
925																																																																																					0.764	0.885	0.939	1.007	0.825	0.837	0.905	0.816	0.860	0.819	0.746	0.805
926																																																																																					0.762	0.884	0.937	1.006	0.824	0.836	0.904	0.814	0.859	0.818	0.745	0.803
927																																																																																					0.760	0.883	0.936	1.004	0.822	0.834	0.903	0.812	0.857	0.816	0.743	0.801
928																																																																																					0.759	0.882	0.934	1.003	0.821	0.833	0.902	0.811	0.855	0.814	0.742	0.800
929																																																																																					0.757	0.880	0.932	1.001	0.819	0.831	0.901	0.809	0.854	0.813	0.740	0.798
930																																																																																					0.756	0.880	0.931	1.000	0.818	0.830	0.900	0.808	0.852	0.811	0.739	0.797
931																																																																																					0.755	0.879	0.930	0.999	0.817	0.829	0.900	0.807	0.851	0.810	0.738	0.796
932																																																																																					0.754	0.878	0.928	0.998	0.816	0.828	0.899	0.806	0.850	0.809	0.737	0.795
933																																																																																					0.752	0.877	0.927	0.997	0.815	0.827	0.899	0.805	0.849	0.808	0.736	0.794
934																																																																																					0.751	0.877	0.926	0.996	0.814	0.826	0.898	0.804	0.848	0.807	0.735	0.792
935																																																																																					0.750	0.876	0.925	0.995	0.813	0.825	0.897	0.802	0.847	0.806	0.733	0.791
936																																																																																					0.749	0.876	0.924	0.994	0.813	0.825	0.897	0.802	0.846	0.805	0.733	0.790
937																																																																																					0.749	0.876	0.924	0.994	0.812	0.824	0.897	0.801	0.845	0.804	0.733	0.790
938																																																																																					0.749	0.876	0.923	0.994	0.812	0.824	0.898	0.801	0.845	0.804	0.732	0.791
939																																																																																					0.748	0.875	0.923	0.993	0.812	0.823	0.897	0.801	0.844	0.804	0.732	0.790
940																																																																																					0.748	0.876	0.922	0.993	0.812	0.823	0.898	0.801	0.844	0.804	0.732	0.790
941																																																																																					0.748	0.876	0.922	0.993	0.812	0.823	0.898	0.800	0.844	0.804	0.732	0.790
942																																																																																					0.748	0.876	0.922	0.993	0.812	0.823	0.898	0.800	0.844	0.803	0.731	0.790
943																																																																																					0.748	0.877	0.922	0.994	0.812	0.823	0.899	0.801	0.844	0.803	0.731	0.790
944																																																																																					0.748	0.877	0.922	0.994	0.812	0.824	0.900	0.801	0.845	0.804	0.732	0.791
945																																																																																					0.749	0.878	0.923	0.995	0.813	0.824	0.900	0.801	0.845	0.804	0.732	0.791
946																																																																																					0.750	0.879	0.924	0.996	0.814	0.825	0.902	0.802	0.846	0.805	0.733	0.793
947																																																																																					0.751	0.881	0.926	0.998	0.816	0.826	0.904	0.804	0.848	0.807	0.735	0.794
948																																																																																					0.752	0.883	0.927	1.000	0.817	0.828	0.906	0.806	0.850	0.809	0.737	0.796
949																																																																																					0.755	0.886	0.929	1.002	0.819	0.830	0.908	0.807	0.851	0.810	0.738	0.798
950																																																																																					0.757	0.889	0.932	1.005	0.822	0.832	0.911	0.810	0.854	0.813	0.741	0.801
951																																																																																					0.760	0.891	0.934	1.008	0.824	0.835	0.914	0.812	0.856	0.816	0.743	0.804
952																																																																																					0.762	0.894	0.937	1.010	0.826	0.837	0.916	0.815	0.859	0.818	0.745	0.806
953																																																																																					0.765	0.897	0.939	1.013	0.828	0.839	0.919	0.817	0.862	0.821	0.747	0.809
954																																																																																					0.768	0.900	0.942	1.016	0.831	0.842	0.923	0.820	0.865	0.824	0.750	0.812
955																																																																																					0.771	0.904	0.946	1.020	0.834	0.845	0.926	0.823	0.868	0.827	0.753	0.816
956																																																																																					0.774	0.906	0.948	1.023	0.836	0.848	0.929	0.825	0.870	0.829	0.756	0.818
957																																																																																					0.775	0.909	0.950	1.025	0.838	0.849	0.931	0.827	0.873	0.831	0.758	0.820
958																																																																																					0.777	0.910	0.952	1.027	0.840	0.851	0.932	0.829	0.874	0.833	0.759	0.821
959																																																																																					0.778	0.911	0.952	1.028	0.840	0.851	0.934	0.830	0.875	0.834	0.760	0.823
960																																																																																					0.778	0.912	0.952	1.028	0.841	0.852	0.934	0.830	0.875	0.834	0.760	0.823
961																																																																																					0.777	0.912	0.952	1.028	0.840	0.851	0.934	0.829	0.875	0.834	0.760	0.823
962																																																																																					0.777	0.911	0.951	1.027	0.840	0.851	0.933	0.829	0.875	0.833	0.759	0.822
963																																																																																					0.776	0.910	0.950	1.026	0.839	0.850	0.933	0.828	0.873	0.832	0.758	0.821
964																																																																																					0.774	0.909	0.948	1.025	0.837	0.848	0.932	0.827	0.872	0.831	0.757	0.820
965																																																																																					0.773	0.907	0.946	1.023	0.836	0.847	0.930	0.825	0.870	0.829	0.755	0.818
966																																																																																					0.771	0.906	0.944	1.021	0.834	0.845	0.929	0.823	0.868	0.827	0.754	0.816
967																																																																																					0.769	0.904	0.942	1.019	0.832	0.843	0.927	0.821	0.866	0.825	0.752	0.814
968																																																																																					0.767	0.902	0.940	1.017	0.830	0.841	0.925	0.820	0.865	0.823	0.750	0.813
969																																																																																					0.765	0.900	0.938	1.015	0.829	0.840	0.924	0.818	0.863	0.822	0.749	0.811
970																																																																																					0.763	0.898	0.936	1.012	0.827	0.838	0.922	0.816	0.861	0.820	0.747	0.809
971																																																																																					0.762	0.896	0.933	1.010	0.825	0.836	0.921	0.814	0.858	0.818	0.745	0.807
972																																																																																					0.759	0.894	0.931	1.007	0.823	0.834	0.919	0.812	0.856	0.816	0.743	0.805
973																																																																																					0.757	0.891	0.928	1.005	0.821	0.831	0.916	0.809	0.854	0.813	0.741	0.803
974																																																																																					0.754	0.888	0.924	1.001	0.818	0.828	0.913	0.806	0.851	0.810	0.738	0.800
975																																																																																					0.750	0.885	0.921	0.998	0.815	0.825	0.910	0.803	0.848	0.807	0.735	0.796
976																																																																																					0.746	0.881	0.917	0.994	0.811	0.822	0.907	0.799	0.844	0.803	0.732	0.791
977																																																																																					0.742	0.878	0.913	0.991	0.808	0.818	0.903	0.796	0.841	0.800	0.729	0.788
978																																																																																					0.740	0.875	0.911	0.988	0.806	0.816	0.902	0.794	0.838	0.798	0.727	0.787
979																																																																																					0.740	0.874	0.909	0.986	0.805	0.815	0.901	0.793	0.836	0.796	0.725	0.787
980																																																																																					0.739	0.873	0.908	0.984	0.803	0.814	0.900	0.792	0.835	0.795	0.724	0.786
981																																																																																					0.739	0.871	0.906	0.982	0.802	0.812	0.900	0.791	0.833	0.794	0.723	0.786
982																																																																																					0.737	0.869	0.903	0.979	0.800	0.810	0.898	0.789	0.831	0.792	0.721	0.784
983																																																																																					0.733	0.865	0.899	0.975	0.797	0.806	0.894	0.785	0.827	0.789	0.718	0.780
984																																																																																					0.727	0.859	0.893	0.969	0.792	0.801	0.888	0.780	0.822	0.783	0.713	0.774
985																																																																																					0.721	0.854	0.888	0.964	0.786	0.796	0.883	0.775	0.817	0.778	0.708	0.768
986																																																																																					0.717	0.849	0.883	0.959	0.782	0.792	0.878	0.770	0.813	0.774	0.704	0.764
987																																																																																					0.713	0.844	0.878	0.954	0.778	0.788	0.874	0.766	0.808	0.769	0.700	0.760
988																																																																																					0.707	0.839	0.873	0.949	0.773	0.783	0.869	0.761	0.804	0.764	0.696	0.754
989																																																																																					0.701	0.834	0.867	0.943	0.768	0.778	0.863	0.756	0.798	0.759	0.691	0.748
990																																																																																					0.697	0.830	0.863	0.939	0.764	0.774	0.859	0.752	0.794	0.755	0.687	0.744
991																																																																																					0.695	0.827	0.860	0.935	0.762	0.772	0.857	0.750	0.791	0.752	0.685	0.742
992																																																																																					0.693	0.825	0.857	0.932	0.760	0.770	0.855	0.748	0.789	0.750	0.683	0.741
993																																																																																					0.693	0.824	0.855	0.930	0.759	0.768	0.855	0.747	0.787	0.749	0.681	0.741
994																																																																																					0.692	0.821	0.853	0.928	0.758	0.767	0.854	0.745	0.785	0.748	0.680	0.741
995																																																																																					0.689	0.818	0.850	0.924	0.755	0.764	0.851	0.743	0.782	0.746	0.678	0.738
996																																																																																					0.685	0.814	0.845	0.919	0.751	0.760	0.847	0.739	0.778	0.741	0.674	0.733
997																																																																																					0.678	0.807	0.839	0.913	0.745	0.754	0.840	0.733	0.772	0.735	0.668	0.727
998																																																																																					0.673	0.801	0.833	0.907	0.740	0.749	0.834	0.727	0.766	0.729	0.664	0.721
999																																																																																					0.667	0.796	0.828	0.902	0.735	0.744	0.829	0.723	0.762	0.725	0.659	0.717

结果
	1	2	3	4	5	6	7	8	9	10	11	12
A	?????	?????	?????	?????	?????	?????	?????	?????	?????	?????	?????	?????	Mean Max OD [Spectrum]
B	?????	?????	?????	?????	?????	?????	?????	?????	?????	?????	?????	?????	Mean Max OD [Spectrum]
C	?????	?????	?????	?????	?????	?????	?????	?????	?????	?????	?????	?????	Mean Max OD [Spectrum]
D	?????	?????	?????	?????	?????	?????	?????	?????	?????	?????	?????	?????	Mean Max OD [Spectrum]
E	?????	?????	?????	?????	?????	?????	?????	?????	?????	?????	?????	?????	Mean Max OD [Spectrum]
F	?????	?????	?????	?????	?????	?????	?????	?????	?????	?????	?????	?????	Mean Max OD [Spectrum]
G	?????	?????	?????	?????	?????	?????	?????	?????	?????	?????	?????	?????	Mean Max OD [Spectrum]
H	1.147	1.105	1.195	1.226	1.045	1.078	1.070	1.120	1.203	1.171	1.103	1.178	Mean Max OD [Spectrum]

