

软件版本	3.11.19



实验文件路径:	
方案文件路径:	



板编号	板 2
日期	2023/5/2
时间	10:34:03
检测仪类型:	Epoch 2
检测仪序列号:	2205170B
检测类型	检测仪

程序详细信息

板类型	96 WELL PLATE
完成后弹出板	
检测	吸收光 光谱
	H1..H12
	开始: 400 nm,  停止: 999 nm,  步骤: 1 nm
	检测前校准
	检测速度: 正常,  延迟: 100 msec,  测量值/数据点: 8

Spectrum

波长	A1	A2	A3	A4	A5	A6	A7	A8	A9	A10	A11	A12	B1	B2	B3	B4	B5	B6	B7	B8	B9	B10	B11	B12	C1	C2	C3	C4	C5	C6	C7	C8	C9	C10	C11	C12	D1	D2	D3	D4	D5	D6	D7	D8	D9	D10	D11	D12	E1	E2	E3	E4	E5	E6	E7	E8	E9	E10	E11	E12	F1	F2	F3	F4	F5	F6	F7	F8	F9	F10	F11	F12	G1	G2	G3	G4	G5	G6	G7	G8	G9	G10	G11	G12	H1	H2	H3	H4	H5	H6	H7	H8	H9	H10	H11	H12
400																																																																																					0.592	0.594	0.607	0.587	0.721	0.641	0.667	0.631	0.583	0.691	0.630	0.620
401																																																																																					0.590	0.593	0.606	0.586	0.719	0.639	0.665	0.629	0.582	0.690	0.628	0.619
402																																																																																					0.588	0.591	0.604	0.584	0.717	0.637	0.663	0.628	0.580	0.688	0.626	0.617
403																																																																																					0.587	0.589	0.602	0.582	0.715	0.636	0.662	0.626	0.578	0.686	0.625	0.616
404																																																																																					0.585	0.588	0.601	0.581	0.713	0.634	0.660	0.624	0.577	0.684	0.623	0.614
405																																																																																					0.584	0.586	0.599	0.579	0.711	0.632	0.658	0.623	0.575	0.682	0.622	0.612
406																																																																																					0.583	0.585	0.598	0.578	0.710	0.631	0.657	0.622	0.574	0.681	0.620	0.611
407																																																																																					0.581	0.584	0.597	0.577	0.708	0.629	0.655	0.620	0.573	0.679	0.619	0.610
408																																																																																					0.580	0.582	0.595	0.575	0.706	0.628	0.654	0.619	0.571	0.677	0.617	0.608
409																																																																																					0.579	0.581	0.594	0.574	0.705	0.626	0.652	0.617	0.570	0.676	0.616	0.607
410																																																																																					0.577	0.579	0.592	0.572	0.703	0.625	0.650	0.615	0.568	0.674	0.614	0.605
411																																																																																					0.576	0.578	0.591	0.571	0.701	0.623	0.649	0.614	0.567	0.672	0.613	0.604
412																																																																																					0.574	0.577	0.590	0.570	0.700	0.622	0.647	0.613	0.566	0.671	0.611	0.602
413																																																																																					0.573	0.575	0.588	0.568	0.698	0.620	0.646	0.611	0.564	0.669	0.610	0.601
414																																																																																					0.572	0.574	0.587	0.567	0.696	0.619	0.644	0.610	0.563	0.668	0.608	0.600
415																																																																																					0.570	0.573	0.586	0.566	0.695	0.618	0.643	0.608	0.562	0.666	0.607	0.598
416																																																																																					0.569	0.571	0.585	0.565	0.693	0.616	0.641	0.607	0.560	0.664	0.606	0.597
417																																																																																					0.568	0.570	0.583	0.563	0.691	0.615	0.640	0.605	0.559	0.663	0.604	0.596
418																																																																																					0.566	0.569	0.582	0.562	0.690	0.613	0.638	0.604	0.558	0.661	0.603	0.594
419																																																																																					0.565	0.567	0.580	0.561	0.688	0.612	0.637	0.602	0.556	0.660	0.601	0.593
420																																																																																					0.564	0.566	0.579	0.559	0.686	0.610	0.635	0.601	0.555	0.658	0.600	0.591
421																																																																																					0.563	0.565	0.578	0.558	0.685	0.609	0.634	0.600	0.554	0.657	0.599	0.590
422																																																																																					0.562	0.564	0.577	0.557	0.684	0.608	0.633	0.599	0.553	0.655	0.597	0.589
423																																																																																					0.561	0.563	0.576	0.556	0.682	0.607	0.631	0.598	0.552	0.654	0.596	0.588
424																																																																																					0.559	0.562	0.575	0.555	0.681	0.606	0.630	0.597	0.550	0.653	0.595	0.587
425																																																																																					0.558	0.561	0.574	0.554	0.680	0.605	0.629	0.595	0.549	0.651	0.594	0.585
426																																																																																					0.557	0.559	0.573	0.553	0.678	0.603	0.627	0.594	0.548	0.650	0.593	0.584
427																																																																																					0.556	0.558	0.572	0.552	0.677	0.602	0.626	0.593	0.547	0.649	0.591	0.583
428																																																																																					0.555	0.557	0.571	0.551	0.676	0.601	0.625	0.592	0.546	0.648	0.590	0.582
429																																																																																					0.554	0.556	0.569	0.550	0.674	0.600	0.624	0.591	0.545	0.646	0.589	0.581
430																																																																																					0.553	0.555	0.568	0.548	0.673	0.599	0.623	0.589	0.544	0.645	0.588	0.579
431																																																																																					0.552	0.554	0.567	0.547	0.672	0.597	0.621	0.588	0.543	0.643	0.586	0.578
432																																																																																					0.551	0.553	0.566	0.546	0.670	0.596	0.620	0.587	0.541	0.642	0.585	0.577
433																																																																																					0.549	0.552	0.565	0.545	0.669	0.595	0.619	0.586	0.540	0.641	0.584	0.576
434																																																																																					0.548	0.551	0.563	0.544	0.668	0.594	0.618	0.584	0.539	0.640	0.583	0.574
435																																																																																					0.547	0.550	0.562	0.543	0.666	0.593	0.617	0.583	0.538	0.638	0.582	0.573
436																																																																																					0.546	0.548	0.561	0.542	0.665	0.591	0.615	0.582	0.537	0.637	0.581	0.572
437																																																																																					0.545	0.547	0.560	0.541	0.664	0.590	0.614	0.581	0.536	0.636	0.579	0.571
438																																																																																					0.544	0.546	0.559	0.540	0.662	0.589	0.613	0.580	0.535	0.634	0.578	0.570
439																																																																																					0.543	0.545	0.558	0.539	0.661	0.588	0.612	0.579	0.534	0.633	0.577	0.569
440																																																																																					0.542	0.544	0.557	0.538	0.660	0.587	0.611	0.578	0.533	0.632	0.576	0.567
441																																																																																					0.541	0.543	0.556	0.537	0.659	0.586	0.610	0.577	0.532	0.631	0.575	0.566
442																																																																																					0.540	0.543	0.555	0.536	0.658	0.585	0.609	0.576	0.531	0.630	0.574	0.565
443																																																																																					0.540	0.542	0.554	0.535	0.657	0.584	0.608	0.575	0.530	0.629	0.573	0.564
444																																																																																					0.539	0.541	0.553	0.534	0.656	0.583	0.607	0.574	0.529	0.628	0.572	0.563
445																																																																																					0.538	0.540	0.552	0.533	0.654	0.582	0.606	0.573	0.528	0.626	0.570	0.562
446																																																																																					0.537	0.539	0.551	0.532	0.653	0.581	0.605	0.572	0.527	0.625	0.570	0.561
447																																																																																					0.536	0.538	0.550	0.531	0.652	0.580	0.604	0.571	0.526	0.625	0.569	0.560
448																																																																																					0.535	0.537	0.550	0.530	0.651	0.579	0.603	0.570	0.525	0.623	0.568	0.559
449																																																																																					0.534	0.536	0.549	0.530	0.650	0.578	0.602	0.570	0.524	0.622	0.567	0.558
450																																																																																					0.533	0.536	0.548	0.529	0.649	0.578	0.601	0.569	0.524	0.621	0.566	0.557
451																																																																																					0.533	0.535	0.547	0.528	0.648	0.577	0.600	0.568	0.523	0.620	0.565	0.556
452																																																																																					0.532	0.534	0.546	0.527	0.647	0.576	0.599	0.567	0.522	0.619	0.564	0.555
453																																																																																					0.531	0.533	0.546	0.526	0.646	0.575	0.598	0.566	0.521	0.618	0.563	0.554
454																																																																																					0.530	0.533	0.545	0.526	0.645	0.574	0.598	0.565	0.520	0.618	0.562	0.553
455																																																																																					0.530	0.532	0.544	0.525	0.645	0.573	0.597	0.565	0.519	0.617	0.561	0.553
456																																																																																					0.529	0.531	0.543	0.524	0.644	0.573	0.596	0.564	0.519	0.616	0.560	0.552
457																																																																																					0.528	0.531	0.543	0.524	0.643	0.572	0.596	0.563	0.518	0.615	0.559	0.551
458																																																																																					0.528	0.530	0.542	0.523	0.642	0.571	0.595	0.563	0.517	0.614	0.559	0.550
459																																																																																					0.527	0.529	0.541	0.522	0.642	0.571	0.594	0.562	0.517	0.613	0.558	0.550
460																																																																																					0.527	0.529	0.541	0.522	0.641	0.570	0.594	0.562	0.516	0.613	0.558	0.549
461																																																																																					0.527	0.529	0.541	0.522	0.641	0.570	0.594	0.561	0.516	0.612	0.557	0.549
462																																																																																					0.526	0.529	0.540	0.521	0.641	0.570	0.593	0.561	0.516	0.612	0.557	0.548
463																																																																																					0.526	0.528	0.540	0.521	0.640	0.570	0.593	0.561	0.515	0.611	0.556	0.548
464																																																																																					0.526	0.528	0.540	0.521	0.640	0.569	0.593	0.560	0.515	0.611	0.556	0.547
465																																																																																					0.526	0.528	0.540	0.520	0.640	0.569	0.592	0.560	0.514	0.611	0.556	0.547
466																																																																																					0.525	0.528	0.539	0.520	0.640	0.569	0.592	0.560	0.514	0.610	0.555	0.546
467																																																																																					0.525	0.527	0.539	0.520	0.640	0.569	0.592	0.560	0.514	0.610	0.555	0.546
468																																																																																					0.525	0.528	0.539	0.520	0.640	0.569	0.592	0.560	0.514	0.610	0.555	0.546
469																																																																																					0.526	0.528	0.539	0.520	0.640	0.569	0.592	0.560	0.514	0.610	0.555	0.546
470																																																																																					0.526	0.528	0.540	0.520	0.640	0.569	0.593	0.560	0.514	0.610	0.555	0.546
471																																																																																					0.526	0.528	0.540	0.521	0.640	0.570	0.593	0.561	0.514	0.610	0.555	0.546
472																																																																																					0.526	0.528	0.540	0.521	0.641	0.570	0.594	0.561	0.515	0.611	0.555	0.546
473																																																																																					0.527	0.529	0.541	0.522	0.642	0.571	0.594	0.562	0.515	0.611	0.556	0.547
474																																																																																					0.527	0.529	0.541	0.522	0.642	0.571	0.595	0.563	0.515	0.611	0.556	0.547
475																																																																																					0.528	0.530	0.542	0.523	0.643	0.572	0.596	0.563	0.516	0.612	0.557	0.548
476																																																																																					0.529	0.531	0.543	0.524	0.645	0.573	0.597	0.564	0.517	0.613	0.558	0.548
477																																																																																					0.530	0.532	0.544	0.525	0.646	0.574	0.598	0.565	0.518	0.614	0.558	0.549
478																																																																																					0.531	0.533	0.545	0.526	0.647	0.576	0.599	0.567	0.519	0.615	0.559	0.550
479																																																																																					0.533	0.535	0.547	0.527	0.649	0.577	0.601	0.568	0.520	0.617	0.561	0.551
480																																																																																					0.534	0.536	0.549	0.529	0.651	0.579	0.603	0.570	0.521	0.618	0.562	0.553
481																																																																																					0.536	0.538	0.551	0.531	0.654	0.581	0.605	0.572	0.523	0.621	0.564	0.555
482																																																																																					0.539	0.540	0.553	0.533	0.657	0.584	0.608	0.575	0.525	0.623	0.567	0.557
483																																																																																					0.541	0.542	0.555	0.535	0.659	0.586	0.610	0.577	0.527	0.625	0.569	0.559
484																																																																																					0.543	0.544	0.557	0.537	0.662	0.588	0.613	0.579	0.529	0.627	0.570	0.560
485																																																																																					0.545	0.546	0.559	0.539	0.664	0.590	0.615	0.581	0.531	0.629	0.573	0.562
486																																																																																					0.547	0.549	0.562	0.541	0.667	0.593	0.617	0.584	0.533	0.632	0.575	0.564
487																																																																																					0.550	0.552	0.565	0.544	0.671	0.596	0.621	0.587	0.536	0.636	0.578	0.568
488																																																																																					0.554	0.555	0.568	0.548	0.675	0.600	0.625	0.591	0.538	0.639	0.581	0.571
489																																																																																					0.557	0.558	0.572	0.551	0.679	0.603	0.628	0.594	0.542	0.643	0.584	0.574
490																																																																																					0.561	0.562	0.575	0.554	0.684	0.607	0.632	0.598	0.545	0.647	0.588	0.577
491																																																																																					0.565	0.566	0.580	0.559	0.689	0.612	0.637	0.603	0.549	0.652	0.592	0.581
492																																																																																					0.569	0.570	0.584	0.562	0.694	0.616	0.641	0.607	0.552	0.656	0.596	0.585
493																																																																																					0.573	0.574	0.587	0.566	0.698	0.620	0.646	0.611	0.556	0.660	0.600	0.589
494																																																																																					0.577	0.578	0.592	0.570	0.704	0.625	0.650	0.615	0.560	0.665	0.605	0.593
495																																																																																					0.582	0.582	0.596	0.574	0.709	0.629	0.655	0.620	0.564	0.670	0.609	0.597
496																																																																																					0.587	0.588	0.602	0.580	0.715	0.635	0.661	0.625	0.569	0.676	0.614	0.602
497																																																																																					0.593	0.593	0.607	0.585	0.722	0.640	0.667	0.631	0.574	0.681	0.619	0.607
498																																																																																					0.598	0.597	0.612	0.589	0.728	0.645	0.673	0.636	0.578	0.687	0.624	0.612
499																																																																																					0.602	0.601	0.616	0.593	0.733	0.649	0.677	0.640	0.581	0.691	0.628	0.615
500																																																																																					0.606	0.605	0.621	0.597	0.738	0.654	0.681	0.645	0.585	0.696	0.632	0.619
501																																																																																					0.611	0.610	0.625	0.602	0.744	0.659	0.687	0.650	0.589	0.701	0.637	0.624
502																																																																																					0.616	0.614	0.630	0.606	0.749	0.664	0.692	0.654	0.594	0.706	0.641	0.628
503																																																																																					0.620	0.618	0.634	0.610	0.754	0.668	0.696	0.658	0.597	0.710	0.645	0.631
504																																																																																					0.625	0.622	0.638	0.614	0.759	0.672	0.701	0.663	0.601	0.715	0.649	0.635
505																																																																																					0.628	0.625	0.642	0.617	0.763	0.676	0.704	0.666	0.603	0.718	0.652	0.638
506																																																																																					0.632	0.628	0.645	0.620	0.767	0.679	0.708	0.670	0.606	0.722	0.655	0.641
507																																																																																					0.635	0.631	0.648	0.623	0.771	0.682	0.711	0.673	0.608	0.724	0.658	0.643
508																																																																																					0.637	0.634	0.651	0.625	0.774	0.685	0.714	0.675	0.610	0.727	0.660	0.645
509																																																																																					0.640	0.636	0.653	0.627	0.776	0.687	0.717	0.677	0.612	0.729	0.662	0.646
510																																																																																					0.642	0.637	0.654	0.629	0.779	0.689	0.719	0.679	0.613	0.730	0.663	0.647
511																																																																																					0.643	0.638	0.656	0.630	0.780	0.690	0.720	0.680	0.613	0.731	0.664	0.647
512																																																																																					0.644	0.639	0.656	0.630	0.781	0.690	0.721	0.681	0.613	0.731	0.664	0.647
513																																																																																					0.644	0.639	0.656	0.630	0.781	0.690	0.721	0.681	0.613	0.730	0.663	0.646
514																																																																																					0.644	0.638	0.656	0.630	0.781	0.690	0.720	0.681	0.612	0.729	0.662	0.645
515																																																																																					0.643	0.637	0.655	0.629	0.780	0.689	0.720	0.680	0.610	0.728	0.661	0.643
516																																																																																					0.642	0.636	0.654	0.627	0.778	0.688	0.718	0.678	0.608	0.725	0.659	0.641
517																																																																																					0.640	0.634	0.652	0.625	0.776	0.685	0.716	0.676	0.606	0.722	0.657	0.638
518																																																																																					0.638	0.632	0.650	0.623	0.774	0.683	0.714	0.674	0.603	0.719	0.654	0.635
519																																																																																					0.636	0.630	0.647	0.621	0.771	0.681	0.712	0.672	0.601	0.716	0.651	0.632
520																																																																																					0.633	0.627	0.645	0.618	0.768	0.678	0.709	0.669	0.598	0.712	0.648	0.629
521																																																																																					0.630	0.624	0.642	0.615	0.764	0.675	0.706	0.666	0.594	0.708	0.644	0.625
522																																																																																					0.626	0.621	0.638	0.612	0.760	0.671	0.702	0.662	0.590	0.704	0.640	0.621
523																																																																																					0.622	0.616	0.634	0.607	0.755	0.666	0.698	0.658	0.585	0.698	0.636	0.616
524																																																																																					0.618	0.612	0.629	0.603	0.750	0.662	0.693	0.653	0.581	0.693	0.631	0.611
525																																																																																					0.613	0.608	0.625	0.599	0.745	0.657	0.688	0.649	0.577	0.687	0.626	0.606
526																																																																																					0.609	0.603	0.621	0.594	0.740	0.652	0.683	0.644	0.572	0.682	0.621	0.601
527																																																																																					0.604	0.598	0.616	0.589	0.734	0.647	0.678	0.638	0.566	0.675	0.616	0.596
528																																																																																					0.599	0.594	0.611	0.585	0.728	0.642	0.673	0.634	0.562	0.670	0.612	0.591
529																																																																																					0.595	0.590	0.607	0.581	0.723	0.638	0.668	0.630	0.558	0.665	0.607	0.587
530																																																																																					0.591	0.586	0.603	0.576	0.718	0.634	0.664	0.625	0.554	0.660	0.603	0.583
531																																																																																					0.585	0.581	0.597	0.571	0.712	0.628	0.658	0.620	0.549	0.654	0.598	0.578
532																																																																																					0.579	0.575	0.591	0.565	0.704	0.621	0.651	0.613	0.542	0.647	0.592	0.572
533																																																																																					0.573	0.569	0.585	0.559	0.697	0.615	0.645	0.607	0.536	0.640	0.586	0.566
534																																																																																					0.567	0.563	0.579	0.554	0.691	0.609	0.639	0.601	0.531	0.634	0.581	0.560
535																																																																																					0.561	0.557	0.573	0.548	0.683	0.603	0.632	0.594	0.526	0.628	0.575	0.555
536																																																																																					0.556	0.553	0.568	0.543	0.677	0.597	0.626	0.589	0.521	0.622	0.570	0.550
537																																																																																					0.550	0.546	0.562	0.537	0.670	0.591	0.620	0.583	0.515	0.615	0.565	0.544
538																																																																																					0.543	0.540	0.556	0.531	0.662	0.584	0.613	0.576	0.510	0.609	0.559	0.539
539																																																																																					0.537	0.534	0.549	0.524	0.654	0.577	0.606	0.569	0.503	0.601	0.552	0.533
540																																																																																					0.530	0.527	0.542	0.518	0.646	0.570	0.598	0.562	0.497	0.594	0.546	0.527
541																																																																																					0.524	0.521	0.536	0.512	0.638	0.563	0.591	0.555	0.492	0.588	0.540	0.522
542																																																																																					0.518	0.516	0.530	0.507	0.631	0.557	0.585	0.549	0.487	0.581	0.536	0.517
543																																																																																					0.513	0.510	0.525	0.502	0.625	0.551	0.579	0.544	0.482	0.576	0.531	0.512
544																																																																																					0.507	0.504	0.519	0.496	0.617	0.545	0.572	0.537	0.476	0.569	0.525	0.507
545																																																																																					0.500	0.497	0.512	0.489	0.609	0.537	0.564	0.530	0.470	0.562	0.519	0.501
546																																																																																					0.494	0.491	0.505	0.482	0.600	0.530	0.556	0.522	0.464	0.555	0.512	0.495
547																																																																																					0.488	0.485	0.499	0.477	0.594	0.524	0.550	0.516	0.459	0.549	0.507	0.490
548																																																																																					0.482	0.479	0.493	0.471	0.586	0.517	0.543	0.510	0.454	0.542	0.502	0.485
549																																																																																					0.477	0.473	0.487	0.465	0.579	0.511	0.537	0.504	0.449	0.536	0.496	0.480
550																																																																																					0.471	0.467	0.480	0.459	0.570	0.504	0.529	0.497	0.443	0.529	0.490	0.474
551																																																																																					0.465	0.461	0.474	0.453	0.562	0.497	0.522	0.490	0.437	0.522	0.484	0.469
552																																																																																					0.459	0.454	0.467	0.446	0.554	0.490	0.515	0.482	0.432	0.515	0.478	0.463
553																																																																																					0.453	0.448	0.461	0.441	0.547	0.484	0.508	0.476	0.426	0.509	0.473	0.457
554																																																																																					0.447	0.442	0.455	0.435	0.539	0.477	0.501	0.469	0.421	0.502	0.467	0.452
555																																																																																					0.442	0.436	0.449	0.429	0.532	0.471	0.494	0.463	0.416	0.496	0.462	0.447
556																																																																																					0.436	0.430	0.442	0.423	0.524	0.464	0.487	0.456	0.410	0.489	0.456	0.441
557																																																																																					0.430	0.424	0.436	0.418	0.516	0.457	0.480	0.450	0.405	0.483	0.450	0.435
558																																																																																					0.425	0.418	0.430	0.411	0.508	0.450	0.473	0.443	0.400	0.476	0.444	0.429
559																																																																																					0.420	0.413	0.425	0.406	0.502	0.445	0.467	0.437	0.395	0.471	0.439	0.425
560																																																																																					0.415	0.407	0.418	0.401	0.495	0.438	0.460	0.431	0.390	0.464	0.433	0.419
561																																																																																					0.409	0.401	0.413	0.395	0.487	0.432	0.454	0.425	0.385	0.458	0.427	0.414
562																																																																																					0.405	0.396	0.407	0.391	0.481	0.426	0.448	0.419	0.381	0.453	0.422	0.409
563																																																																																					0.401	0.392	0.403	0.386	0.475	0.421	0.443	0.414	0.377	0.448	0.418	0.404
564																																																																																					0.397	0.387	0.398	0.381	0.469	0.416	0.437	0.409	0.372	0.443	0.413	0.400
565																																																																																					0.392	0.381	0.392	0.376	0.462	0.410	0.431	0.403	0.368	0.437	0.407	0.394
566																																																																																					0.388	0.377	0.387	0.372	0.456	0.405	0.425	0.398	0.364	0.432	0.403	0.390
567																																																																																					0.384	0.372	0.383	0.367	0.450	0.400	0.419	0.392	0.360	0.426	0.398	0.385
568																																																																																					0.380	0.368	0.378	0.363	0.444	0.395	0.414	0.387	0.356	0.422	0.393	0.380
569																																																																																					0.376	0.363	0.373	0.359	0.439	0.390	0.409	0.383	0.352	0.417	0.389	0.376
570																																																																																					0.373	0.359	0.369	0.355	0.433	0.385	0.404	0.378	0.348	0.412	0.384	0.371
571																																																																																					0.369	0.354	0.364	0.350	0.427	0.380	0.399	0.373	0.344	0.407	0.380	0.367
572																																																																																					0.366	0.350	0.360	0.347	0.422	0.375	0.394	0.368	0.341	0.403	0.375	0.362
573																																																																																					0.363	0.347	0.357	0.344	0.418	0.371	0.390	0.364	0.338	0.399	0.372	0.359
574																																																																																					0.360	0.343	0.353	0.340	0.413	0.367	0.385	0.360	0.335	0.395	0.368	0.355
575																																																																																					0.357	0.340	0.349	0.337	0.408	0.363	0.381	0.356	0.332	0.391	0.364	0.351
576																																																																																					0.355	0.336	0.346	0.334	0.404	0.359	0.377	0.352	0.329	0.387	0.361	0.348
577																																																																																					0.352	0.333	0.342	0.330	0.400	0.356	0.373	0.349	0.326	0.384	0.357	0.344
578																																																																																					0.350	0.330	0.339	0.327	0.395	0.352	0.369	0.345	0.323	0.380	0.354	0.341
579																																																																																					0.347	0.326	0.336	0.324	0.391	0.348	0.365	0.341	0.320	0.377	0.350	0.337
580																																																																																					0.345	0.323	0.332	0.321	0.387	0.344	0.361	0.338	0.318	0.373	0.347	0.334
581																																																																																					0.343	0.320	0.329	0.318	0.383	0.341	0.358	0.334	0.315	0.370	0.344	0.331
582																																																																																					0.341	0.317	0.326	0.315	0.379	0.338	0.354	0.331	0.313	0.367	0.341	0.328
583																																																																																					0.339	0.314	0.323	0.313	0.375	0.334	0.351	0.328	0.310	0.364	0.338	0.324
584																																																																																					0.337	0.311	0.320	0.310	0.372	0.331	0.347	0.325	0.308	0.361	0.335	0.322
585																																																																																					0.336	0.309	0.318	0.308	0.368	0.328	0.344	0.322	0.306	0.358	0.332	0.319
586																																																																																					0.334	0.306	0.315	0.305	0.365	0.325	0.341	0.319	0.304	0.355	0.330	0.316
587																																																																																					0.333	0.304	0.313	0.303	0.362	0.323	0.339	0.316	0.302	0.353	0.328	0.314
588																																																																																					0.332	0.302	0.311	0.301	0.359	0.321	0.336	0.314	0.300	0.351	0.325	0.312
589																																																																																					0.331	0.300	0.309	0.300	0.357	0.318	0.334	0.311	0.299	0.349	0.323	0.310
590																																																																																					0.330	0.298	0.307	0.298	0.354	0.316	0.331	0.309	0.297	0.347	0.321	0.308
591																																																																																					0.329	0.296	0.305	0.296	0.351	0.314	0.329	0.307	0.296	0.345	0.320	0.306
592																																																																																					0.328	0.294	0.303	0.294	0.349	0.312	0.326	0.305	0.295	0.343	0.318	0.304
593																																																																																					0.328	0.293	0.301	0.293	0.347	0.310	0.325	0.303	0.294	0.342	0.316	0.302
594																																																																																					0.327	0.291	0.299	0.292	0.344	0.308	0.323	0.301	0.292	0.340	0.314	0.301
595																																																																																					0.327	0.290	0.298	0.290	0.342	0.306	0.320	0.299	0.291	0.339	0.313	0.299
596																																																																																					0.327	0.288	0.296	0.289	0.341	0.304	0.319	0.297	0.291	0.338	0.312	0.298
597																																																																																					0.326	0.287	0.295	0.288	0.339	0.303	0.317	0.296	0.290	0.337	0.310	0.296
598																																																																																					0.326	0.286	0.294	0.287	0.337	0.302	0.316	0.294	0.289	0.336	0.309	0.295
599																																																																																					0.327	0.285	0.293	0.286	0.336	0.300	0.314	0.293	0.288	0.335	0.309	0.294
600																																																																																					0.327	0.284	0.292	0.285	0.334	0.299	0.313	0.292	0.288	0.334	0.307	0.293
601																																																																																					0.327	0.283	0.291	0.284	0.333	0.298	0.311	0.290	0.287	0.333	0.306	0.292
602																																																																																					0.328	0.282	0.290	0.283	0.331	0.296	0.310	0.289	0.287	0.333	0.306	0.291
603																																																																																					0.328	0.281	0.289	0.283	0.330	0.296	0.309	0.288	0.286	0.332	0.305	0.290
604																																																																																					0.329	0.280	0.288	0.282	0.329	0.295	0.308	0.288	0.286	0.332	0.305	0.290
605																																																																																					0.330	0.280	0.288	0.282	0.328	0.294	0.307	0.287	0.286	0.332	0.304	0.289
606																																																																																					0.331	0.279	0.287	0.282	0.328	0.293	0.307	0.286	0.286	0.332	0.304	0.289
607																																																																																					0.332	0.279	0.287	0.282	0.327	0.293	0.306	0.286	0.286	0.332	0.304	0.289
608																																																																																					0.334	0.279	0.287	0.282	0.326	0.292	0.305	0.285	0.286	0.332	0.303	0.288
609																																																																																					0.335	0.278	0.286	0.281	0.326	0.292	0.305	0.284	0.287	0.332	0.303	0.288
610																																																																																					0.336	0.278	0.286	0.281	0.325	0.291	0.304	0.284	0.287	0.332	0.303	0.288
611																																																																																					0.338	0.278	0.286	0.281	0.325	0.291	0.304	0.284	0.287	0.332	0.303	0.288
612																																																																																					0.340	0.278	0.286	0.282	0.325	0.291	0.303	0.283	0.287	0.333	0.304	0.288
613																																																																																					0.342	0.278	0.286	0.282	0.324	0.290	0.303	0.283	0.288	0.333	0.304	0.288
614																																																																																					0.344	0.278	0.286	0.282	0.325	0.290	0.303	0.283	0.289	0.334	0.304	0.288
615																																																																																					0.346	0.278	0.287	0.283	0.325	0.290	0.303	0.283	0.289	0.335	0.305	0.288
616																																																																																					0.349	0.279	0.287	0.283	0.325	0.291	0.303	0.283	0.290	0.336	0.305	0.289
617																																																																																					0.351	0.279	0.287	0.284	0.325	0.291	0.303	0.284	0.291	0.337	0.306	0.289
618																																																																																					0.354	0.280	0.288	0.285	0.325	0.291	0.303	0.284	0.292	0.338	0.306	0.290
619																																																																																					0.357	0.280	0.289	0.286	0.326	0.291	0.304	0.284	0.293	0.339	0.307	0.290
620																																																																																					0.360	0.281	0.289	0.286	0.326	0.292	0.304	0.284	0.295	0.340	0.308	0.291
621																																																																																					0.363	0.281	0.290	0.288	0.327	0.292	0.305	0.285	0.296	0.342	0.309	0.292
622																																																																																					0.367	0.282	0.291	0.289	0.328	0.293	0.305	0.286	0.297	0.343	0.310	0.293
623																																																																																					0.371	0.283	0.292	0.290	0.328	0.293	0.306	0.286	0.299	0.345	0.312	0.294
624																																																																																					0.374	0.284	0.293	0.291	0.329	0.294	0.307	0.287	0.300	0.347	0.313	0.295
625																																																																																					0.378	0.285	0.294	0.292	0.330	0.295	0.307	0.288	0.302	0.349	0.314	0.296
626																																																																																					0.382	0.286	0.295	0.294	0.332	0.296	0.308	0.289	0.304	0.350	0.316	0.297
627																																																																																					0.387	0.287	0.297	0.296	0.333	0.297	0.309	0.290	0.305	0.353	0.318	0.298
628																																																																																					0.391	0.289	0.298	0.297	0.334	0.298	0.310	0.291	0.307	0.355	0.319	0.300
629																																																																																					0.396	0.290	0.300	0.299	0.336	0.300	0.312	0.292	0.309	0.357	0.321	0.301
630																																																																																					0.401	0.292	0.302	0.301	0.337	0.301	0.313	0.293	0.312	0.360	0.323	0.303
631																																																																																					0.406	0.293	0.304	0.303	0.339	0.302	0.315	0.295	0.314	0.363	0.325	0.305
632																																																																																					0.411	0.295	0.305	0.305	0.341	0.304	0.316	0.296	0.316	0.365	0.327	0.306
633																																																																																					0.417	0.297	0.308	0.308	0.343	0.306	0.318	0.298	0.319	0.368	0.329	0.308
634																																																																																					0.423	0.299	0.310	0.310	0.345	0.307	0.320	0.300	0.322	0.372	0.332	0.310
635																																																																																					0.429	0.301	0.312	0.313	0.347	0.309	0.321	0.301	0.324	0.375	0.335	0.313
636																																																																																					0.435	0.303	0.315	0.315	0.349	0.311	0.323	0.303	0.327	0.378	0.337	0.315
637																																																																																					0.442	0.305	0.317	0.318	0.352	0.313	0.325	0.305	0.330	0.382	0.340	0.317
638																																																																																					0.449	0.308	0.320	0.321	0.355	0.316	0.328	0.307	0.334	0.386	0.343	0.320
639																																																																																					0.456	0.311	0.323	0.324	0.358	0.318	0.330	0.310	0.337	0.390	0.346	0.323
640																																																																																					0.464	0.313	0.326	0.328	0.360	0.321	0.333	0.312	0.341	0.394	0.350	0.325
641																																																																																					0.471	0.316	0.329	0.331	0.364	0.323	0.335	0.315	0.344	0.399	0.353	0.328
642																																																																																					0.479	0.319	0.332	0.335	0.367	0.326	0.338	0.318	0.348	0.403	0.357	0.331
643																																																																																					0.488	0.322	0.336	0.338	0.370	0.329	0.341	0.320	0.353	0.408	0.361	0.335
644																																																																																					0.496	0.326	0.340	0.342	0.374	0.332	0.344	0.323	0.357	0.413	0.365	0.338
645																																																																																					0.506	0.329	0.344	0.346	0.378	0.335	0.347	0.327	0.361	0.418	0.369	0.342
646																																																																																					0.515	0.333	0.347	0.350	0.382	0.338	0.350	0.330	0.366	0.424	0.373	0.345
647																																																																																					0.525	0.336	0.352	0.355	0.386	0.342	0.354	0.333	0.371	0.430	0.378	0.349
648																																																																																					0.535	0.340	0.356	0.360	0.390	0.345	0.358	0.337	0.376	0.436	0.382	0.353
649																																																																																					0.545	0.344	0.361	0.365	0.395	0.349	0.362	0.340	0.381	0.442	0.387	0.357
650																																																																																					0.554	0.348	0.365	0.369	0.399	0.353	0.365	0.344	0.386	0.447	0.392	0.361
651																																																																																					0.565	0.352	0.370	0.374	0.404	0.356	0.369	0.347	0.391	0.454	0.397	0.365
652																																																																																					0.575	0.357	0.374	0.379	0.408	0.360	0.373	0.351	0.397	0.460	0.402	0.369
653																																																																																					0.587	0.361	0.380	0.385	0.413	0.365	0.378	0.355	0.403	0.467	0.408	0.374
654																																																																																					0.598	0.366	0.385	0.390	0.419	0.369	0.382	0.360	0.409	0.474	0.413	0.379
655																																																																																					0.611	0.371	0.391	0.397	0.424	0.374	0.387	0.364	0.415	0.482	0.420	0.384
656																																																																																					0.623	0.377	0.397	0.403	0.430	0.379	0.392	0.369	0.422	0.490	0.426	0.390
657																																																																																					0.637	0.382	0.403	0.409	0.436	0.384	0.397	0.375	0.429	0.498	0.433	0.395
658																																																																																					0.650	0.388	0.409	0.416	0.443	0.389	0.403	0.380	0.436	0.507	0.439	0.401
659																																																																																					0.663	0.394	0.416	0.423	0.449	0.395	0.409	0.385	0.444	0.516	0.447	0.407
660																																																																																					0.675	0.399	0.422	0.429	0.455	0.400	0.413	0.390	0.450	0.524	0.453	0.412
661																																																																																					0.690	0.406	0.429	0.437	0.463	0.406	0.420	0.396	0.459	0.534	0.461	0.419
662																																																																																					0.705	0.413	0.437	0.445	0.470	0.412	0.426	0.402	0.467	0.543	0.469	0.426
663																																																																																					0.720	0.420	0.444	0.453	0.478	0.419	0.433	0.409	0.476	0.554	0.477	0.433
664																																																																																					0.736	0.427	0.452	0.461	0.486	0.425	0.440	0.415	0.485	0.564	0.486	0.440
665																																																																																					0.751	0.434	0.460	0.470	0.494	0.432	0.447	0.422	0.494	0.575	0.494	0.447
666																																																																																					0.765	0.441	0.468	0.478	0.501	0.438	0.453	0.428	0.502	0.585	0.503	0.454
667																																																																																					0.782	0.449	0.477	0.487	0.510	0.446	0.461	0.435	0.512	0.597	0.512	0.462
668																																																																																					0.799	0.457	0.486	0.497	0.520	0.454	0.468	0.443	0.523	0.609	0.522	0.471
669																																																																																					0.815	0.466	0.495	0.507	0.529	0.461	0.476	0.450	0.533	0.621	0.532	0.479
670																																																																																					0.832	0.475	0.505	0.516	0.538	0.469	0.484	0.458	0.543	0.634	0.542	0.488
671																																																																																					0.849	0.483	0.515	0.526	0.548	0.477	0.493	0.466	0.554	0.646	0.552	0.497
672																																																																																					0.865	0.492	0.524	0.536	0.558	0.485	0.501	0.474	0.565	0.659	0.562	0.505
673																																																																																					0.883	0.501	0.535	0.547	0.569	0.494	0.510	0.483	0.577	0.673	0.574	0.515
674																																																																																					0.902	0.512	0.546	0.559	0.580	0.503	0.520	0.492	0.589	0.688	0.586	0.525
675																																																																																					0.919	0.522	0.557	0.570	0.591	0.512	0.529	0.501	0.602	0.702	0.598	0.535
676																																																																																					0.938	0.532	0.569	0.583	0.603	0.522	0.540	0.512	0.615	0.718	0.610	0.547
677																																																																																					0.956	0.543	0.581	0.594	0.614	0.531	0.550	0.521	0.627	0.733	0.622	0.557
678																																																																																					0.975	0.554	0.593	0.607	0.627	0.541	0.560	0.531	0.641	0.749	0.636	0.568
679																																																																																					0.993	0.565	0.605	0.619	0.639	0.552	0.570	0.541	0.654	0.764	0.649	0.579
680																																																																																					1.012	0.577	0.618	0.632	0.652	0.563	0.582	0.552	0.669	0.782	0.663	0.591
681																																																																																					1.030	0.589	0.631	0.646	0.666	0.574	0.593	0.563	0.683	0.799	0.677	0.604
682																																																																																					1.049	0.600	0.644	0.659	0.679	0.584	0.605	0.574	0.698	0.816	0.691	0.616
683																																																																																					1.067	0.613	0.657	0.673	0.693	0.596	0.616	0.585	0.713	0.834	0.706	0.628
684																																																																																					1.085	0.625	0.671	0.687	0.707	0.607	0.628	0.597	0.728	0.852	0.720	0.641
685																																																																																					1.104	0.639	0.686	0.702	0.722	0.620	0.641	0.610	0.744	0.871	0.737	0.655
686																																																																																					1.124	0.653	0.702	0.717	0.738	0.633	0.655	0.623	0.762	0.892	0.753	0.670
687																																																																																					1.143	0.667	0.717	0.734	0.755	0.646	0.669	0.636	0.779	0.912	0.771	0.685
688																																																																																					1.163	0.682	0.733	0.750	0.771	0.659	0.683	0.650	0.797	0.933	0.788	0.701
689																																																																																					1.182	0.697	0.749	0.766	0.787	0.673	0.697	0.664	0.815	0.954	0.805	0.716
690																																																																																					1.199	0.711	0.764	0.781	0.804	0.686	0.711	0.677	0.832	0.974	0.822	0.731
691																																																																																					1.216	0.724	0.779	0.797	0.820	0.699	0.724	0.690	0.848	0.995	0.839	0.746
692																																																																																					1.235	0.740	0.796	0.813	0.837	0.713	0.739	0.705	0.867	1.016	0.857	0.762
693																																																																																					1.252	0.756	0.814	0.831	0.855	0.728	0.755	0.720	0.886	1.039	0.876	0.780
694																																																																																					1.271	0.772	0.831	0.848	0.873	0.743	0.770	0.735	0.905	1.062	0.896	0.797
695																																																																																					1.288	0.787	0.847	0.865	0.890	0.757	0.785	0.750	0.923	1.083	0.914	0.813
696																																																																																					1.305	0.804	0.865	0.882	0.910	0.773	0.802	0.766	0.943	1.107	0.935	0.832
697																																																																																					1.324	0.822	0.885	0.902	0.931	0.790	0.820	0.783	0.965	1.133	0.957	0.852
698																																																																																					1.339	0.838	0.901	0.918	0.948	0.804	0.835	0.798	0.984	1.155	0.975	0.868
699																																																																																					1.355	0.854	0.919	0.935	0.967	0.820	0.851	0.814	1.003	1.179	0.995	0.887
700																																																																																					1.371	0.870	0.935	0.952	0.985	0.835	0.867	0.829	1.021	1.200	1.014	0.904
701																																																																																					1.386	0.887	0.954	0.969	1.004	0.851	0.884	0.845	1.041	1.224	1.034	0.923
702																																																																																					1.402	0.904	0.972	0.989	1.026	0.868	0.901	0.862	1.060	1.248	1.055	0.942
703																																																																																					1.419	0.923	0.993	1.008	1.047	0.886	0.920	0.881	1.084	1.276	1.079	0.964
704																																																																																					1.435	0.941	1.012	1.027	1.068	0.903	0.938	0.898	1.104	1.301	1.100	0.984
705																																																																																					1.449	0.958	1.031	1.045	1.088	0.920	0.957	0.916	1.125	1.325	1.122	1.004
706																																																																																					1.464	0.977	1.050	1.064	1.110	0.938	0.975	0.934	1.146	1.351	1.144	1.024
707																																																																																					1.478	0.995	1.068	1.083	1.131	0.956	0.994	0.952	1.167	1.377	1.167	1.045
708																																																																																					1.492	1.013	1.088	1.101	1.152	0.973	1.012	0.969	1.187	1.402	1.188	1.066
709																																																																																					1.506	1.032	1.107	1.121	1.175	0.992	1.031	0.988	1.209	1.428	1.211	1.087
710																																																																																					1.519	1.050	1.127	1.138	1.196	1.010	1.050	1.006	1.230	1.453	1.233	1.109
711																																																																																					1.532	1.068	1.146	1.158	1.217	1.028	1.069	1.025	1.251	1.479	1.255	1.130
712																																																																																					1.545	1.086	1.165	1.176	1.238	1.046	1.087	1.043	1.270	1.503	1.276	1.150
713																																																																																					1.557	1.105	1.184	1.195	1.260	1.065	1.107	1.062	1.292	1.529	1.300	1.172
714																																																																																					1.569	1.124	1.205	1.214	1.284	1.084	1.128	1.081	1.314	1.555	1.322	1.195
715																																																																																					1.581	1.144	1.225	1.233	1.306	1.104	1.147	1.100	1.336	1.582	1.346	1.218
716																																																																																					1.592	1.162	1.244	1.252	1.328	1.122	1.166	1.118	1.356	1.607	1.369	1.239
717																																																																																					1.603	1.181	1.264	1.270	1.350	1.141	1.186	1.138	1.376	1.632	1.391	1.262
718																																																																																					1.613	1.199	1.283	1.288	1.371	1.160	1.206	1.156	1.396	1.657	1.414	1.284
719																																																																																					1.623	1.219	1.302	1.307	1.394	1.179	1.225	1.176	1.417	1.683	1.436	1.306
720																																																																																					1.632	1.235	1.321	1.324	1.415	1.198	1.244	1.194	1.436	1.706	1.458	1.328
721																																																																																					1.641	1.255	1.341	1.343	1.438	1.217	1.264	1.213	1.457	1.732	1.481	1.351
722																																																																																					1.650	1.275	1.361	1.363	1.462	1.237	1.285	1.234	1.478	1.758	1.505	1.375
723																																																																																					1.657	1.294	1.380	1.380	1.485	1.256	1.304	1.253	1.498	1.783	1.528	1.398
724																																																																																					1.665	1.312	1.399	1.398	1.506	1.276	1.324	1.272	1.518	1.807	1.550	1.421
725																																																																																					1.672	1.330	1.419	1.416	1.529	1.295	1.344	1.291	1.537	1.832	1.573	1.444
726																																																																																					1.678	1.348	1.437	1.433	1.550	1.313	1.363	1.310	1.556	1.855	1.594	1.466
727																																																																																					1.683	1.366	1.455	1.450	1.572	1.332	1.383	1.329	1.576	1.879	1.617	1.489
728																																																																																					1.689	1.384	1.474	1.468	1.594	1.352	1.402	1.348	1.594	1.902	1.638	1.512
729																																																																																					1.693	1.402	1.492	1.484	1.615	1.370	1.422	1.367	1.613	1.925	1.660	1.535
730																																																																																					1.697	1.419	1.509	1.500	1.637	1.389	1.440	1.385	1.631	1.949	1.681	1.557
731																																																																																					1.701	1.437	1.527	1.516	1.658	1.407	1.460	1.404	1.650	1.971	1.703	1.580
732																																																																																					1.704	1.454	1.545	1.532	1.679	1.425	1.478	1.421	1.667	1.992	1.723	1.602
733																																																																																					1.707	1.471	1.561	1.547	1.699	1.443	1.497	1.440	1.684	2.013	1.744	1.625
734																																																																																					1.708	1.486	1.577	1.561	1.718	1.459	1.513	1.456	1.699	2.033	1.762	1.644
735																																																																																					1.710	1.502	1.592	1.575	1.738	1.476	1.530	1.473	1.715	2.053	1.781	1.666
736																																																																																					1.710	1.518	1.609	1.590	1.758	1.494	1.549	1.490	1.732	2.074	1.802	1.688
737																																																																																					1.711	1.534	1.625	1.604	1.777	1.510	1.566	1.508	1.747	2.092	1.821	1.709
738																																																																																					1.710	1.549	1.639	1.617	1.796	1.527	1.583	1.524	1.762	2.112	1.839	1.730
739																																																																																					1.709	1.563	1.654	1.630	1.814	1.543	1.599	1.540	1.776	2.130	1.857	1.750
740																																																																																					1.707	1.579	1.669	1.643	1.834	1.559	1.617	1.558	1.791	2.149	1.877	1.772
741																																																																																					1.705	1.592	1.682	1.655	1.851	1.574	1.632	1.573	1.804	2.165	1.893	1.792
742																																																																																					1.703	1.606	1.695	1.666	1.868	1.588	1.647	1.588	1.817	2.181	1.909	1.811
743																																																																																					1.700	1.618	1.708	1.677	1.885	1.602	1.662	1.602	1.829	2.196	1.925	1.829
744																																																																																					1.696	1.631	1.720	1.687	1.900	1.616	1.676	1.617	1.840	2.211	1.940	1.849
745																																																																																					1.692	1.644	1.731	1.697	1.916	1.630	1.691	1.631	1.851	2.224	1.956	1.867
746																																																																																					1.688	1.655	1.743	1.706	1.931	1.643	1.704	1.644	1.862	2.238	1.969	1.884
747																																																																																					1.683	1.667	1.754	1.716	1.947	1.655	1.718	1.658	1.872	2.252	1.984	1.902
748																																																																																					1.678	1.678	1.764	1.725	1.961	1.668	1.731	1.671	1.881	2.264	1.998	1.919
749																																																																																					1.672	1.689	1.774	1.733	1.975	1.680	1.744	1.684	1.890	2.276	2.010	1.936
750																																																																																					1.667	1.699	1.783	1.741	1.988	1.692	1.756	1.696	1.899	2.286	2.023	1.952
751																																																																																					1.661	1.708	1.792	1.748	2.001	1.702	1.768	1.708	1.906	2.296	2.034	1.967
752																																																																																					1.655	1.717	1.800	1.754	2.014	1.713	1.779	1.719	1.913	2.305	2.045	1.981
753																																																																																					1.648	1.725	1.808	1.760	2.025	1.723	1.790	1.730	1.919	2.315	2.055	1.995
754																																																																																					1.642	1.734	1.816	1.766	2.037	1.733	1.801	1.741	1.926	2.321	2.066	2.009
755																																																																																					1.635	1.743	1.823	1.772	2.050	1.743	1.812	1.751	1.931	2.330	2.075	2.023
756																																																																																					1.627	1.750	1.829	1.777	2.059	1.752	1.822	1.761	1.936	2.336	2.083	2.036
757																																																																																					1.619	1.758	1.836	1.783	2.070	1.762	1.832	1.771	1.942	2.343	2.091	2.048
758																																																																																					1.612	1.764	1.841	1.787	2.081	1.770	1.842	1.781	1.944	2.349	2.100	2.061
759																																																																																					1.604	1.772	1.847	1.791	2.091	1.780	1.852	1.791	1.949	2.352	2.107	2.074
760																																																																																					1.596	1.777	1.852	1.794	2.100	1.787	1.861	1.799	1.952	2.357	2.113	2.084
761																																																																																					1.585	1.784	1.857	1.798	2.110	1.796	1.870	1.809	1.953	2.360	2.119	2.097
762																																																																																					1.576	1.789	1.861	1.801	2.120	1.805	1.879	1.819	1.956	2.365	2.125	2.107
763																																																																																					1.567	1.795	1.865	1.803	2.128	1.812	1.887	1.826	1.958	2.366	2.131	2.116
764																																																																																					1.559	1.800	1.869	1.806	2.135	1.820	1.895	1.833	1.959	2.369	2.136	2.125
765																																																																																					1.552	1.803	1.871	1.807	2.140	1.824	1.901	1.839	1.960	2.369	2.138	2.132
766																																																																																					1.543	1.807	1.873	1.808	2.147	1.830	1.907	1.845	1.959	2.369	2.141	2.140
767																																																																																					1.534	1.810	1.875	1.809	2.153	1.836	1.914	1.853	1.958	2.368	2.144	2.146
768																																																																																					1.523	1.813	1.877	1.809	2.159	1.843	1.921	1.859	1.957	2.368	2.146	2.154
769																																																																																					1.513	1.816	1.878	1.809	2.165	1.848	1.926	1.865	1.955	2.367	2.147	2.160
770																																																																																					1.503	1.818	1.879	1.809	2.170	1.855	1.933	1.870	1.953	2.365	2.148	2.167
771																																																																																					1.494	1.820	1.879	1.809	2.175	1.859	1.938	1.875	1.951	2.361	2.150	2.172
772																																																																																					1.484	1.821	1.879	1.807	2.179	1.863	1.943	1.881	1.948	2.362	2.149	2.175
773																																																																																					1.473	1.823	1.878	1.806	2.183	1.869	1.948	1.885	1.945	2.355	2.148	2.180
774																																																																																					1.463	1.824	1.879	1.804	2.188	1.873	1.952	1.888	1.941	2.353	2.149	2.184
775																																																																																					1.453	1.824	1.877	1.803	2.189	1.877	1.956	1.893	1.936	2.349	2.147	2.188
776																																																																																					1.442	1.825	1.876	1.800	2.193	1.880	1.960	1.897	1.933	2.344	2.145	2.191
777																																																																																					1.433	1.824	1.873	1.797	2.194	1.884	1.964	1.898	1.927	2.339	2.144	2.193
778																																																																																					1.421	1.822	1.871	1.795	2.198	1.887	1.966	1.902	1.922	2.331	2.139	2.194
779																																																																																					1.410	1.822	1.869	1.792	2.197	1.889	1.970	1.904	1.916	2.323	2.136	2.197
780																																																																																					1.399	1.820	1.865	1.787	2.197	1.892	1.970	1.907	1.910	2.317	2.133	2.196
781																																																																																					1.387	1.818	1.862	1.783	2.198	1.893	1.974	1.907	1.904	2.310	2.128	2.196
782																																																																																					1.376	1.815	1.858	1.778	2.199	1.896	1.975	1.909	1.895	2.303	2.123	2.197
783																																																																																					1.365	1.813	1.854	1.773	2.197	1.896	1.976	1.909	1.887	2.293	2.117	2.196
784																																																																																					1.353	1.809	1.849	1.768	2.198	1.899	1.976	1.909	1.880	2.286	2.113	2.195
785																																																																																					1.341	1.806	1.844	1.763	2.195	1.899	1.976	1.909	1.872	2.273	2.106	2.193
786																																																																																					1.329	1.802	1.839	1.756	2.192	1.901	1.975	1.909	1.863	2.263	2.100	2.190
787																																																																																					1.317	1.798	1.832	1.750	2.190	1.900	1.975	1.908	1.854	2.254	2.092	2.188
788																																																																																					1.306	1.793	1.827	1.744	2.188	1.900	1.974	1.907	1.845	2.243	2.085	2.186
789																																																																																					1.295	1.788	1.821	1.738	2.183	1.900	1.974	1.905	1.836	2.234	2.077	2.181
790																																																																																					1.284	1.784	1.815	1.731	2.180	1.898	1.970	1.903	1.826	2.223	2.072	2.178
791																																																																																					1.273	1.779	1.807	1.724	2.176	1.897	1.970	1.900	1.817	2.212	2.063	2.172
792																																																																																					1.261	1.773	1.800	1.716	2.172	1.895	1.967	1.898	1.806	2.200	2.054	2.167
793																																																																																					1.250	1.767	1.793	1.709	2.165	1.893	1.964	1.895	1.796	2.189	2.044	2.162
794																																																																																					1.237	1.760	1.784	1.699	2.161	1.890	1.961	1.891	1.785	2.174	2.034	2.156
795																																																																																					1.225	1.754	1.776	1.691	2.153	1.887	1.957	1.888	1.773	2.160	2.024	2.150
796																																																																																					1.213	1.746	1.767	1.682	2.149	1.885	1.953	1.882	1.761	2.148	2.013	2.142
797																																																																																					1.202	1.738	1.758	1.673	2.140	1.881	1.948	1.877	1.749	2.133	2.003	2.135
798																																																																																					1.190	1.731	1.750	1.664	2.133	1.876	1.943	1.873	1.738	2.119	1.992	2.126
799																																																																																					1.178	1.724	1.741	1.656	2.126	1.872	1.938	1.867	1.727	2.106	1.981	2.121
800																																																																																					1.167	1.715	1.732	1.646	2.120	1.868	1.933	1.862	1.714	2.091	1.969	2.113
801																																																																																					1.155	1.707	1.722	1.635	2.112	1.863	1.926	1.856	1.701	2.075	1.956	2.101
802																																																																																					1.144	1.698	1.712	1.627	2.103	1.859	1.920	1.849	1.689	2.061	1.946	2.093
803																																																																																					1.133	1.690	1.703	1.617	2.095	1.853	1.914	1.843	1.676	2.047	1.933	2.084
804																																																																																					1.121	1.681	1.692	1.606	2.086	1.847	1.908	1.837	1.663	2.031	1.921	2.074
805																																																																																					1.110	1.672	1.683	1.596	2.077	1.842	1.900	1.829	1.652	2.015	1.908	2.065
806																																																																																					1.099	1.663	1.673	1.586	2.068	1.835	1.894	1.822	1.638	2.002	1.896	2.055
807																																																																																					1.088	1.654	1.661	1.576	2.058	1.829	1.887	1.815	1.626	1.986	1.882	2.044
808																																																																																					1.077	1.645	1.651	1.565	2.047	1.822	1.879	1.807	1.612	1.968	1.869	2.033
809																																																																																					1.066	1.634	1.640	1.554	2.037	1.816	1.871	1.799	1.598	1.952	1.856	2.022
810																																																																																					1.056	1.625	1.630	1.544	2.028	1.808	1.864	1.791	1.586	1.938	1.843	2.012
811																																																																																					1.045	1.615	1.619	1.532	2.017	1.800	1.854	1.783	1.572	1.921	1.827	1.999
812																																																																																					1.034	1.606	1.609	1.522	2.007	1.793	1.845	1.775	1.559	1.906	1.815	1.988
813																																																																																					1.023	1.595	1.596	1.511	1.994	1.786	1.837	1.766	1.545	1.888	1.800	1.974
814																																																																																					1.012	1.585	1.586	1.501	1.984	1.777	1.828	1.758	1.532	1.872	1.786	1.961
815																																																																																					1.001	1.574	1.574	1.488	1.972	1.768	1.818	1.747	1.517	1.854	1.770	1.950
816																																																																																					0.991	1.563	1.563	1.477	1.961	1.760	1.809	1.738	1.503	1.837	1.756	1.935
817																																																																																					0.980	1.553	1.551	1.466	1.950	1.751	1.800	1.729	1.490	1.820	1.741	1.922
818																																																																																					0.970	1.542	1.540	1.454	1.938	1.742	1.791	1.720	1.476	1.803	1.726	1.908
819																																																																																					0.956	1.529	1.524	1.439	1.923	1.730	1.778	1.707	1.458	1.781	1.706	1.890
820																																																																																					0.943	1.514	1.509	1.425	1.908	1.718	1.766	1.695	1.440	1.759	1.687	1.872
821																																																																																					0.930	1.500	1.494	1.411	1.894	1.707	1.754	1.684	1.423	1.738	1.668	1.854
822																																																																																					0.922	1.492	1.485	1.401	1.884	1.699	1.745	1.675	1.411	1.724	1.656	1.843
823																																																																																					0.917	1.486	1.479	1.395	1.877	1.694	1.739	1.669	1.403	1.713	1.647	1.835
824																																																																																					0.912	1.481	1.473	1.389	1.870	1.690	1.734	1.664	1.396	1.704	1.639	1.828
825																																																																																					0.905	1.474	1.464	1.382	1.861	1.683	1.726	1.657	1.387	1.692	1.628	1.818
826																																																																																					0.894	1.462	1.451	1.369	1.848	1.672	1.715	1.646	1.371	1.672	1.611	1.801
827																																																																																					0.882	1.447	1.437	1.355	1.833	1.660	1.702	1.633	1.353	1.651	1.591	1.782
828																																																																																					0.873	1.437	1.425	1.344	1.821	1.651	1.692	1.623	1.341	1.635	1.577	1.768
829																																																																																					0.867	1.429	1.417	1.335	1.811	1.643	1.684	1.616	1.330	1.622	1.565	1.756
830																																																																																					0.859	1.420	1.407	1.327	1.801	1.635	1.676	1.607	1.319	1.607	1.552	1.744
831																																																																																					0.849	1.407	1.394	1.314	1.787	1.625	1.665	1.596	1.304	1.588	1.534	1.728
832																																																																																					0.835	1.390	1.375	1.296	1.769	1.609	1.649	1.581	1.283	1.563	1.511	1.704
833																																																																																					0.824	1.377	1.362	1.283	1.755	1.597	1.636	1.569	1.268	1.543	1.493	1.685
834																																																																																					0.817	1.368	1.352	1.274	1.743	1.589	1.627	1.560	1.256	1.528	1.480	1.672
835																																																																																					0.811	1.361	1.344	1.266	1.735	1.581	1.619	1.552	1.247	1.516	1.469	1.661
836																																																																																					0.804	1.353	1.335	1.258	1.725	1.574	1.611	1.544	1.236	1.503	1.457	1.649
837																																																																																					0.796	1.344	1.325	1.248	1.713	1.565	1.602	1.535	1.225	1.488	1.443	1.635
838																																																																																					0.784	1.327	1.309	1.232	1.696	1.551	1.587	1.520	1.207	1.466	1.422	1.613
839																																																																																					0.774	1.314	1.295	1.219	1.680	1.539	1.574	1.508	1.192	1.446	1.404	1.596
840																																																																																					0.766	1.303	1.283	1.208	1.668	1.528	1.563	1.497	1.178	1.429	1.389	1.579
841																																																																																					0.758	1.293	1.272	1.198	1.657	1.519	1.553	1.487	1.166	1.414	1.375	1.565
842																																																																																					0.751	1.284	1.262	1.189	1.646	1.510	1.544	1.478	1.155	1.401	1.362	1.552
843																																																																																					0.744	1.273	1.251	1.178	1.633	1.500	1.534	1.467	1.143	1.384	1.347	1.536
844																																																																																					0.735	1.261	1.238	1.167	1.620	1.489	1.522	1.456	1.129	1.369	1.332	1.520
845																																																																																					0.726	1.249	1.226	1.154	1.606	1.478	1.509	1.444	1.115	1.350	1.315	1.502
846																																																																																					0.717	1.237	1.213	1.142	1.591	1.466	1.498	1.433	1.101	1.333	1.299	1.486
847																																																																																					0.710	1.226	1.201	1.132	1.579	1.456	1.487	1.422	1.088	1.317	1.284	1.470
848																																																																																					0.702	1.216	1.191	1.122	1.567	1.447	1.476	1.412	1.077	1.304	1.271	1.455
849																																																																																					0.695	1.205	1.180	1.111	1.555	1.437	1.466	1.401	1.065	1.288	1.256	1.440
850																																																																																					0.688	1.195	1.169	1.101	1.543	1.426	1.456	1.391	1.053	1.272	1.242	1.425
851																																																																																					0.680	1.184	1.158	1.090	1.529	1.416	1.445	1.380	1.041	1.258	1.228	1.410
852																																																																																					0.673	1.173	1.147	1.081	1.517	1.405	1.434	1.369	1.029	1.243	1.213	1.395
853																																																																																					0.665	1.162	1.136	1.070	1.504	1.395	1.422	1.359	1.018	1.228	1.199	1.380
854																																																																																					0.657	1.150	1.123	1.058	1.490	1.384	1.411	1.347	1.004	1.211	1.183	1.362
855																																																																																					0.650	1.139	1.113	1.048	1.478	1.373	1.401	1.336	0.993	1.197	1.169	1.348
856																																																																																					0.643	1.129	1.102	1.038	1.465	1.363	1.388	1.326	0.981	1.182	1.156	1.332
857																																																																																					0.636	1.118	1.090	1.027	1.452	1.353	1.378	1.315	0.969	1.168	1.142	1.317
858																																																																																					0.629	1.107	1.079	1.017	1.440	1.342	1.367	1.304	0.958	1.153	1.129	1.303
859																																																																																					0.623	1.097	1.069	1.007	1.428	1.333	1.357	1.294	0.947	1.140	1.115	1.289
860																																																																																					0.616	1.087	1.059	0.998	1.415	1.323	1.346	1.284	0.936	1.127	1.103	1.274
861																																																																																					0.610	1.077	1.048	0.988	1.403	1.313	1.335	1.273	0.925	1.113	1.090	1.260
862																																																																																					0.603	1.067	1.038	0.978	1.390	1.303	1.325	1.262	0.914	1.099	1.076	1.245
863																																																																																					0.598	1.057	1.028	0.968	1.378	1.293	1.314	1.252	0.904	1.087	1.064	1.231
864																																																																																					0.591	1.047	1.017	0.959	1.367	1.283	1.304	1.241	0.894	1.073	1.051	1.218
865																																																																																					0.585	1.037	1.008	0.950	1.354	1.273	1.294	1.231	0.883	1.061	1.039	1.204
866																																																																																					0.579	1.027	0.998	0.940	1.342	1.264	1.283	1.221	0.873	1.048	1.027	1.190
867																																																																																					0.574	1.018	0.988	0.931	1.331	1.254	1.274	1.211	0.863	1.036	1.015	1.177
868																																																																																					0.567	1.006	0.977	0.921	1.317	1.243	1.261	1.199	0.852	1.021	1.001	1.161
869																																																																																					0.561	0.997	0.967	0.912	1.305	1.233	1.251	1.189	0.842	1.009	0.989	1.148
870																																																																																					0.556	0.988	0.958	0.903	1.294	1.224	1.241	1.180	0.833	0.997	0.978	1.135
871																																																																																					0.551	0.979	0.949	0.895	1.283	1.214	1.231	1.170	0.823	0.986	0.967	1.123
872																																																																																					0.546	0.969	0.940	0.886	1.272	1.206	1.222	1.160	0.815	0.975	0.956	1.110
873																																																																																					0.541	0.960	0.931	0.877	1.260	1.197	1.212	1.151	0.806	0.963	0.945	1.097
874																																																																																					0.535	0.951	0.922	0.869	1.249	1.187	1.202	1.141	0.796	0.952	0.933	1.085
875																																																																																					0.529	0.940	0.911	0.859	1.236	1.176	1.190	1.129	0.785	0.939	0.920	1.070
876																																																																																					0.523	0.931	0.901	0.850	1.224	1.166	1.179	1.119	0.776	0.927	0.909	1.057
877																																																																																					0.517	0.921	0.891	0.840	1.212	1.155	1.168	1.109	0.766	0.915	0.897	1.043
878																																																																																					0.510	0.908	0.879	0.829	1.197	1.143	1.156	1.095	0.754	0.900	0.882	1.026
879																																																																																					0.502	0.895	0.866	0.817	1.182	1.129	1.142	1.081	0.742	0.884	0.867	1.009
880																																																																																					0.496	0.885	0.856	0.807	1.169	1.118	1.130	1.071	0.731	0.872	0.855	0.995
881																																																																																					0.493	0.879	0.850	0.802	1.161	1.112	1.122	1.064	0.725	0.864	0.848	0.987
882																																																																																					0.490	0.875	0.845	0.797	1.154	1.106	1.116	1.058	0.720	0.857	0.842	0.979
883																																																																																					0.488	0.871	0.840	0.793	1.148	1.101	1.111	1.053	0.715	0.852	0.836	0.973
884																																																																																					0.485	0.866	0.835	0.787	1.141	1.096	1.105	1.047	0.710	0.846	0.830	0.966
885																																																																																					0.481	0.858	0.827	0.780	1.131	1.087	1.096	1.037	0.702	0.835	0.821	0.955
886																																																																																					0.474	0.846	0.815	0.769	1.117	1.074	1.083	1.025	0.691	0.822	0.807	0.939
887																																																																																					0.468	0.835	0.805	0.760	1.104	1.063	1.071	1.014	0.681	0.810	0.795	0.925
888																																																																																					0.463	0.826	0.795	0.750	1.093	1.052	1.060	1.003	0.672	0.798	0.783	0.912
889																																																																																					0.458	0.817	0.787	0.742	1.081	1.042	1.050	0.993	0.663	0.788	0.773	0.900
890																																																																																					0.453	0.808	0.778	0.734	1.070	1.033	1.039	0.983	0.655	0.777	0.763	0.888
891																																																																																					0.447	0.799	0.769	0.725	1.059	1.023	1.029	0.973	0.646	0.767	0.753	0.876
892																																																																																					0.442	0.789	0.759	0.716	1.046	1.012	1.018	0.962	0.637	0.755	0.741	0.862
893																																																																																					0.437	0.779	0.750	0.708	1.035	1.001	1.007	0.952	0.628	0.745	0.730	0.850
894																																																																																					0.432	0.771	0.741	0.700	1.024	0.991	0.996	0.942	0.620	0.734	0.721	0.838
895																																																																																					0.429	0.765	0.736	0.694	1.016	0.985	0.990	0.936	0.615	0.727	0.714	0.830
896																																																																																					0.427	0.761	0.731	0.690	1.010	0.980	0.984	0.930	0.610	0.722	0.708	0.824
897																																																																																					0.424	0.756	0.725	0.685	1.002	0.974	0.978	0.924	0.605	0.715	0.702	0.817
898																																																																																					0.421	0.749	0.719	0.679	0.994	0.966	0.970	0.916	0.599	0.708	0.695	0.807
899																																																																																					0.415	0.739	0.710	0.670	0.982	0.956	0.959	0.905	0.590	0.697	0.684	0.795
900																																																																																					0.411	0.731	0.701	0.662	0.971	0.945	0.949	0.896	0.582	0.687	0.674	0.784
901																																																																																					0.406	0.721	0.692	0.654	0.959	0.934	0.938	0.885	0.573	0.677	0.663	0.771
902																																																																																					0.401	0.711	0.683	0.645	0.947	0.924	0.927	0.874	0.565	0.666	0.653	0.758
903																																																																																					0.396	0.704	0.675	0.638	0.938	0.915	0.917	0.866	0.558	0.657	0.644	0.748
904																																																																																					0.394	0.699	0.670	0.633	0.931	0.909	0.911	0.860	0.553	0.652	0.639	0.742
905																																																																																					0.392	0.695	0.666	0.630	0.925	0.904	0.906	0.855	0.550	0.647	0.634	0.736
906																																																																																					0.390	0.691	0.662	0.626	0.919	0.899	0.901	0.850	0.546	0.642	0.630	0.730
907																																																																																					0.388	0.686	0.657	0.621	0.912	0.893	0.895	0.843	0.541	0.636	0.624	0.723
908																																																																																					0.384	0.678	0.649	0.614	0.902	0.884	0.885	0.834	0.534	0.627	0.615	0.713
909																																																																																					0.379	0.669	0.641	0.606	0.891	0.874	0.875	0.825	0.526	0.618	0.605	0.702
910																																																																																					0.375	0.661	0.633	0.599	0.881	0.864	0.865	0.815	0.519	0.609	0.597	0.691
911																																																																																					0.371	0.654	0.627	0.593	0.873	0.857	0.857	0.808	0.513	0.602	0.590	0.683
912																																																																																					0.368	0.646	0.619	0.586	0.863	0.847	0.848	0.799	0.507	0.594	0.581	0.673
913																																																																																					0.363	0.637	0.611	0.578	0.852	0.837	0.839	0.789	0.499	0.585	0.572	0.662
914																																																																																					0.359	0.630	0.604	0.571	0.842	0.828	0.829	0.780	0.493	0.577	0.564	0.652
915																																																																																					0.357	0.625	0.599	0.567	0.835	0.822	0.822	0.774	0.488	0.571	0.558	0.645
916																																																																																					0.356	0.622	0.596	0.564	0.831	0.818	0.818	0.770	0.486	0.568	0.555	0.641
917																																																																																					0.355	0.620	0.593	0.561	0.827	0.815	0.815	0.767	0.483	0.564	0.552	0.637
918																																																																																					0.354	0.617	0.590	0.558	0.822	0.811	0.810	0.762	0.480	0.561	0.549	0.633
919																																																																																					0.352	0.613	0.586	0.554	0.816	0.805	0.805	0.757	0.476	0.556	0.544	0.627
920																																																																																					0.348	0.606	0.579	0.548	0.807	0.798	0.797	0.749	0.471	0.549	0.537	0.619
921																																																																																					0.346	0.599	0.573	0.542	0.799	0.789	0.788	0.741	0.465	0.542	0.529	0.610
922																																																																																					0.343	0.593	0.567	0.538	0.792	0.783	0.782	0.735	0.461	0.537	0.524	0.603
923																																																																																					0.341	0.589	0.563	0.533	0.785	0.776	0.775	0.729	0.457	0.531	0.519	0.596
924																																																																																					0.339	0.583	0.558	0.528	0.778	0.770	0.769	0.723	0.452	0.526	0.513	0.590
925																																																																																					0.337	0.578	0.552	0.524	0.771	0.763	0.762	0.716	0.448	0.521	0.508	0.583
926																																																																																					0.336	0.574	0.548	0.520	0.765	0.758	0.756	0.711	0.445	0.517	0.504	0.577
927																																																																																					0.334	0.569	0.544	0.516	0.759	0.752	0.751	0.705	0.441	0.512	0.499	0.571
928																																																																																					0.332	0.564	0.540	0.512	0.753	0.746	0.745	0.700	0.438	0.508	0.494	0.565
929																																																																																					0.331	0.561	0.536	0.509	0.748	0.742	0.740	0.695	0.434	0.504	0.491	0.560
930																																																																																					0.330	0.556	0.532	0.505	0.742	0.736	0.735	0.690	0.431	0.500	0.486	0.555
931																																																																																					0.329	0.553	0.529	0.502	0.738	0.732	0.730	0.686	0.428	0.496	0.482	0.551
932																																																																																					0.328	0.549	0.526	0.499	0.733	0.727	0.725	0.681	0.426	0.493	0.479	0.546
933																																																																																					0.327	0.546	0.522	0.496	0.728	0.722	0.720	0.676	0.423	0.490	0.476	0.541
934																																																																																					0.326	0.541	0.518	0.492	0.722	0.717	0.716	0.672	0.420	0.486	0.471	0.536
935																																																																																					0.325	0.538	0.515	0.489	0.717	0.713	0.711	0.667	0.418	0.483	0.468	0.531
936																																																																																					0.325	0.535	0.512	0.487	0.713	0.708	0.706	0.663	0.415	0.480	0.465	0.527
937																																																																																					0.324	0.533	0.510	0.485	0.710	0.705	0.703	0.660	0.414	0.478	0.463	0.524
938																																																																																					0.324	0.531	0.508	0.483	0.707	0.702	0.700	0.657	0.412	0.476	0.461	0.521
939																																																																																					0.325	0.529	0.506	0.481	0.703	0.700	0.697	0.654	0.411	0.474	0.459	0.518
940																																																																																					0.325	0.527	0.504	0.480	0.701	0.697	0.694	0.651	0.410	0.473	0.457	0.516
941																																																																																					0.325	0.524	0.502	0.478	0.697	0.693	0.691	0.648	0.408	0.471	0.455	0.512
942																																																																																					0.325	0.522	0.500	0.476	0.694	0.690	0.688	0.645	0.407	0.469	0.453	0.510
943																																																																																					0.326	0.520	0.499	0.475	0.691	0.687	0.685	0.642	0.406	0.468	0.452	0.507
944																																																																																					0.327	0.519	0.498	0.474	0.689	0.685	0.682	0.640	0.405	0.467	0.450	0.505
945																																																																																					0.327	0.517	0.496	0.473	0.687	0.683	0.680	0.638	0.405	0.466	0.449	0.503
946																																																																																					0.329	0.517	0.496	0.472	0.685	0.681	0.679	0.637	0.405	0.466	0.449	0.502
947																																																																																					0.331	0.516	0.496	0.472	0.684	0.680	0.677	0.635	0.405	0.467	0.449	0.500
948																																																																																					0.333	0.516	0.496	0.473	0.684	0.679	0.677	0.635	0.406	0.467	0.449	0.500
949																																																																																					0.335	0.516	0.496	0.473	0.684	0.678	0.676	0.634	0.407	0.468	0.450	0.499
950																																																																																					0.338	0.517	0.497	0.474	0.684	0.679	0.676	0.634	0.408	0.470	0.450	0.500
951																																																																																					0.341	0.518	0.499	0.476	0.685	0.679	0.677	0.635	0.410	0.472	0.452	0.500
952																																																																																					0.344	0.519	0.500	0.477	0.685	0.680	0.677	0.636	0.412	0.474	0.454	0.501
953																																																																																					0.347	0.521	0.501	0.479	0.687	0.681	0.678	0.636	0.414	0.476	0.455	0.502
954																																																																																					0.351	0.522	0.503	0.481	0.688	0.682	0.679	0.637	0.416	0.478	0.457	0.503
955																																																																																					0.354	0.524	0.505	0.482	0.689	0.682	0.680	0.638	0.418	0.481	0.459	0.504
956																																																																																					0.357	0.525	0.506	0.484	0.690	0.683	0.681	0.639	0.420	0.483	0.461	0.505
957																																																																																					0.360	0.525	0.507	0.485	0.691	0.683	0.681	0.639	0.422	0.485	0.462	0.506
958																																																																																					0.362	0.525	0.508	0.486	0.691	0.682	0.680	0.639	0.423	0.486	0.462	0.505
959																																																																																					0.364	0.525	0.508	0.486	0.690	0.681	0.679	0.638	0.423	0.486	0.462	0.504
960																																																																																					0.365	0.524	0.507	0.485	0.688	0.679	0.677	0.636	0.423	0.486	0.462	0.503
961																																																																																					0.365	0.522	0.505	0.484	0.685	0.677	0.675	0.633	0.422	0.485	0.461	0.501
962																																																																																					0.365	0.521	0.504	0.483	0.683	0.674	0.672	0.631	0.421	0.484	0.459	0.499
963																																																																																					0.365	0.518	0.502	0.480	0.680	0.671	0.669	0.628	0.420	0.482	0.457	0.497
964																																																																																					0.364	0.516	0.500	0.479	0.676	0.668	0.666	0.625	0.418	0.480	0.455	0.494
965																																																																																					0.363	0.513	0.497	0.476	0.673	0.664	0.662	0.622	0.417	0.478	0.453	0.491
966																																																																																					0.363	0.511	0.495	0.474	0.669	0.660	0.658	0.618	0.415	0.475	0.451	0.488
967																																																																																					0.361	0.507	0.492	0.472	0.665	0.656	0.654	0.614	0.413	0.473	0.448	0.485
968																																																																																					0.360	0.505	0.489	0.469	0.661	0.652	0.651	0.611	0.411	0.471	0.445	0.482
969																																																																																					0.359	0.502	0.487	0.467	0.657	0.649	0.647	0.607	0.409	0.468	0.443	0.479
970																																																																																					0.358	0.500	0.484	0.465	0.653	0.645	0.644	0.604	0.407	0.466	0.441	0.476
971																																																																																					0.357	0.496	0.481	0.462	0.649	0.641	0.639	0.600	0.405	0.463	0.438	0.473
972																																																																																					0.356	0.494	0.479	0.459	0.645	0.637	0.635	0.596	0.402	0.461	0.436	0.469
973																																																																																					0.354	0.490	0.476	0.457	0.641	0.633	0.631	0.592	0.400	0.458	0.433	0.466
974																																																																																					0.353	0.487	0.473	0.454	0.636	0.629	0.627	0.588	0.398	0.455	0.430	0.463
975																																																																																					0.350	0.482	0.469	0.450	0.631	0.623	0.622	0.583	0.395	0.451	0.426	0.458
976																																																																																					0.347	0.477	0.465	0.446	0.625	0.617	0.616	0.577	0.391	0.447	0.422	0.453
977																																																																																					0.345	0.474	0.461	0.443	0.620	0.612	0.611	0.573	0.388	0.444	0.418	0.449
978																																																																																					0.344	0.472	0.458	0.440	0.617	0.609	0.607	0.569	0.386	0.441	0.416	0.446
979																																																																																					0.343	0.470	0.456	0.438	0.614	0.606	0.604	0.567	0.385	0.440	0.415	0.444
980																																																																																					0.343	0.469	0.455	0.436	0.611	0.604	0.602	0.565	0.383	0.438	0.413	0.443
981																																																																																					0.343	0.468	0.453	0.435	0.609	0.603	0.600	0.562	0.383	0.437	0.412	0.441
982																																																																																					0.341	0.465	0.451	0.432	0.605	0.599	0.597	0.559	0.380	0.434	0.410	0.438
983																																																																																					0.339	0.461	0.447	0.429	0.599	0.594	0.592	0.554	0.377	0.431	0.406	0.434
984																																																																																					0.334	0.455	0.441	0.424	0.592	0.586	0.584	0.547	0.372	0.425	0.401	0.428
985																																																																																					0.331	0.449	0.436	0.419	0.585	0.579	0.577	0.541	0.368	0.419	0.396	0.422
986																																																																																					0.328	0.445	0.432	0.415	0.579	0.574	0.572	0.535	0.364	0.416	0.392	0.418
987																																																																																					0.324	0.439	0.427	0.411	0.573	0.567	0.565	0.529	0.360	0.411	0.387	0.413
988																																																																																					0.321	0.434	0.422	0.406	0.566	0.560	0.559	0.523	0.356	0.406	0.382	0.408
989																																																																																					0.317	0.428	0.417	0.402	0.560	0.554	0.553	0.517	0.352	0.401	0.377	0.402
990																																																																																					0.314	0.424	0.413	0.398	0.554	0.548	0.547	0.512	0.349	0.397	0.373	0.398
991																																																																																					0.312	0.422	0.410	0.395	0.550	0.545	0.543	0.509	0.346	0.394	0.371	0.395
992																																																																																					0.311	0.420	0.408	0.392	0.547	0.542	0.540	0.506	0.345	0.392	0.369	0.393
993																																																																																					0.311	0.419	0.407	0.391	0.545	0.540	0.538	0.504	0.344	0.391	0.368	0.391
994																																																																																					0.310	0.418	0.405	0.389	0.542	0.538	0.536	0.502	0.342	0.389	0.366	0.389
995																																																																																					0.308	0.415	0.402	0.386	0.538	0.534	0.532	0.498	0.340	0.386	0.363	0.386
996																																																																																					0.305	0.411	0.398	0.382	0.532	0.528	0.527	0.493	0.336	0.382	0.360	0.382
997																																																																																					0.301	0.405	0.392	0.377	0.525	0.521	0.519	0.486	0.331	0.377	0.355	0.376
998																																																																																					0.297	0.399	0.387	0.372	0.519	0.515	0.513	0.480	0.327	0.372	0.350	0.371
999																																																																																					0.293	0.394	0.383	0.368	0.512	0.509	0.507	0.474	0.323	0.367	0.345	0.366

结果
	1	2	3	4	5	6	7	8	9	10	11	12
A	?????	?????	?????	?????	?????	?????	?????	?????	?????	?????	?????	?????	Mean Max OD [Spectrum]
B	?????	?????	?????	?????	?????	?????	?????	?????	?????	?????	?????	?????	Mean Max OD [Spectrum]
C	?????	?????	?????	?????	?????	?????	?????	?????	?????	?????	?????	?????	Mean Max OD [Spectrum]
D	?????	?????	?????	?????	?????	?????	?????	?????	?????	?????	?????	?????	Mean Max OD [Spectrum]
E	?????	?????	?????	?????	?????	?????	?????	?????	?????	?????	?????	?????	Mean Max OD [Spectrum]
F	?????	?????	?????	?????	?????	?????	?????	?????	?????	?????	?????	?????	Mean Max OD [Spectrum]
G	?????	?????	?????	?????	?????	?????	?????	?????	?????	?????	?????	?????	Mean Max OD [Spectrum]
H	1.711	1.825	1.879	1.809	2.199	1.901	1.976	1.909	1.960	2.369	2.150	2.197	Mean Max OD [Spectrum]

