

软件版本	3.11.19



实验文件路径:	
方案文件路径:	



板编号	板 1
日期	2023/5/26
时间	10:24:30
检测仪类型:	Epoch 2
检测仪序列号:	2205170B
检测类型	检测仪

程序详细信息

板类型	96 WELL PLATE
完成后弹出板	
检测	吸收光 光谱
	H1..H12
	开始: 400 nm,  停止: 999 nm,  步骤: 1 nm
	检测前校准
	检测速度: 正常,  延迟: 100 msec,  测量值/数据点: 8

Spectrum

波长	A1	A2	A3	A4	A5	A6	A7	A8	A9	A10	A11	A12	B1	B2	B3	B4	B5	B6	B7	B8	B9	B10	B11	B12	C1	C2	C3	C4	C5	C6	C7	C8	C9	C10	C11	C12	D1	D2	D3	D4	D5	D6	D7	D8	D9	D10	D11	D12	E1	E2	E3	E4	E5	E6	E7	E8	E9	E10	E11	E12	F1	F2	F3	F4	F5	F6	F7	F8	F9	F10	F11	F12	G1	G2	G3	G4	G5	G6	G7	G8	G9	G10	G11	G12	H1	H2	H3	H4	H5	H6	H7	H8	H9	H10	H11	H12
400																																																																																					0.517	0.696	0.673	0.675	0.670	0.658	0.655	0.660	0.545	0.464	0.471	0.518
401																																																																																					0.516	0.695	0.671	0.673	0.668	0.656	0.653	0.659	0.544	0.463	0.470	0.516
402																																																																																					0.514	0.693	0.669	0.671	0.666	0.654	0.651	0.657	0.542	0.461	0.469	0.515
403																																																																																					0.513	0.691	0.667	0.669	0.665	0.653	0.649	0.655	0.541	0.460	0.468	0.514
404																																																																																					0.511	0.689	0.666	0.668	0.663	0.651	0.648	0.653	0.539	0.459	0.466	0.512
405																																																																																					0.510	0.687	0.664	0.666	0.662	0.649	0.646	0.652	0.538	0.458	0.465	0.511
406																																																																																					0.509	0.686	0.663	0.664	0.660	0.648	0.645	0.650	0.536	0.457	0.464	0.510
407																																																																																					0.508	0.684	0.661	0.662	0.659	0.646	0.643	0.649	0.535	0.456	0.463	0.509
408																																																																																					0.506	0.682	0.660	0.661	0.657	0.645	0.642	0.647	0.534	0.455	0.462	0.508
409																																																																																					0.505	0.681	0.658	0.660	0.655	0.643	0.640	0.646	0.532	0.453	0.461	0.506
410																																																																																					0.504	0.679	0.656	0.658	0.654	0.642	0.639	0.644	0.531	0.452	0.460	0.505
411																																																																																					0.502	0.678	0.655	0.657	0.652	0.640	0.637	0.643	0.530	0.451	0.459	0.504
412																																																																																					0.501	0.676	0.653	0.656	0.651	0.639	0.635	0.641	0.529	0.450	0.458	0.503
413																																																																																					0.500	0.675	0.652	0.654	0.649	0.637	0.634	0.639	0.527	0.449	0.457	0.502
414																																																																																					0.499	0.673	0.651	0.653	0.648	0.636	0.632	0.638	0.526	0.448	0.456	0.501
415																																																																																					0.497	0.672	0.649	0.652	0.647	0.634	0.631	0.636	0.525	0.447	0.454	0.500
416																																																																																					0.496	0.670	0.648	0.651	0.645	0.633	0.630	0.635	0.524	0.446	0.453	0.498
417																																																																																					0.495	0.669	0.646	0.650	0.644	0.631	0.628	0.633	0.522	0.445	0.452	0.497
418																																																																																					0.494	0.667	0.645	0.648	0.642	0.630	0.627	0.632	0.521	0.444	0.451	0.496
419																																																																																					0.493	0.666	0.644	0.647	0.641	0.628	0.625	0.630	0.520	0.443	0.450	0.495
420																																																																																					0.492	0.664	0.642	0.646	0.639	0.627	0.624	0.629	0.519	0.442	0.449	0.494
421																																																																																					0.491	0.663	0.641	0.646	0.638	0.626	0.623	0.628	0.518	0.441	0.449	0.493
422																																																																																					0.490	0.662	0.640	0.644	0.637	0.625	0.622	0.626	0.517	0.440	0.448	0.492
423																																																																																					0.489	0.660	0.639	0.643	0.636	0.624	0.620	0.625	0.516	0.440	0.447	0.491
424																																																																																					0.488	0.659	0.638	0.642	0.635	0.622	0.619	0.624	0.515	0.439	0.446	0.491
425																																																																																					0.487	0.658	0.636	0.640	0.633	0.621	0.618	0.623	0.514	0.438	0.445	0.489
426																																																																																					0.486	0.657	0.635	0.639	0.632	0.620	0.617	0.621	0.513	0.437	0.444	0.489
427																																																																																					0.485	0.656	0.634	0.638	0.631	0.619	0.616	0.620	0.511	0.436	0.443	0.488
428																																																																																					0.484	0.654	0.633	0.638	0.630	0.618	0.614	0.619	0.510	0.435	0.442	0.487
429																																																																																					0.483	0.653	0.632	0.635	0.629	0.617	0.613	0.618	0.509	0.435	0.442	0.486
430																																																																																					0.482	0.652	0.631	0.635	0.628	0.615	0.612	0.617	0.508	0.434	0.441	0.485
431																																																																																					0.481	0.651	0.630	0.634	0.626	0.614	0.611	0.615	0.507	0.433	0.440	0.484
432																																																																																					0.480	0.650	0.628	0.633	0.625	0.613	0.610	0.614	0.506	0.432	0.439	0.483
433																																																																																					0.479	0.649	0.627	0.633	0.624	0.612	0.609	0.613	0.505	0.431	0.438	0.482
434																																																																																					0.478	0.647	0.626	0.632	0.623	0.610	0.607	0.611	0.504	0.430	0.437	0.481
435																																																																																					0.477	0.646	0.625	0.631	0.622	0.609	0.606	0.610	0.503	0.430	0.436	0.480
436																																																																																					0.476	0.645	0.624	0.629	0.620	0.608	0.605	0.609	0.502	0.429	0.435	0.479
437																																																																																					0.475	0.644	0.623	0.628	0.619	0.607	0.604	0.608	0.501	0.428	0.435	0.479
438																																																																																					0.474	0.643	0.622	0.627	0.618	0.606	0.603	0.607	0.500	0.427	0.434	0.478
439																																																																																					0.473	0.642	0.621	0.626	0.617	0.605	0.602	0.606	0.499	0.426	0.433	0.477
440																																																																																					0.472	0.641	0.620	0.626	0.616	0.604	0.601	0.605	0.498	0.426	0.432	0.476
441																																																																																					0.472	0.640	0.619	0.624	0.615	0.603	0.600	0.603	0.498	0.425	0.432	0.475
442																																																																																					0.471	0.639	0.618	0.623	0.615	0.602	0.599	0.603	0.497	0.424	0.431	0.474
443																																																																																					0.470	0.638	0.617	0.622	0.614	0.601	0.598	0.602	0.496	0.423	0.430	0.474
444																																																																																					0.469	0.637	0.616	0.621	0.613	0.600	0.597	0.601	0.495	0.423	0.430	0.473
445																																																																																					0.468	0.636	0.615	0.621	0.612	0.599	0.596	0.599	0.494	0.422	0.429	0.472
446																																																																																					0.468	0.635	0.614	0.620	0.611	0.598	0.595	0.598	0.493	0.421	0.428	0.472
447																																																																																					0.467	0.634	0.613	0.619	0.610	0.597	0.594	0.598	0.493	0.421	0.428	0.471
448																																																																																					0.466	0.634	0.613	0.618	0.609	0.596	0.594	0.597	0.492	0.420	0.427	0.470
449																																																																																					0.466	0.633	0.612	0.617	0.608	0.595	0.593	0.596	0.491	0.420	0.426	0.470
450																																																																																					0.465	0.632	0.611	0.616	0.608	0.595	0.592	0.595	0.490	0.419	0.426	0.469
451																																																																																					0.464	0.631	0.610	0.615	0.607	0.594	0.591	0.594	0.490	0.418	0.425	0.468
452																																																																																					0.464	0.631	0.610	0.616	0.606	0.593	0.591	0.593	0.489	0.418	0.425	0.468
453																																																																																					0.463	0.630	0.609	0.614	0.606	0.592	0.590	0.592	0.488	0.417	0.424	0.467
454																																																																																					0.463	0.630	0.609	0.614	0.605	0.591	0.589	0.591	0.488	0.417	0.424	0.467
455																																																																																					0.462	0.629	0.608	0.614	0.604	0.591	0.589	0.591	0.487	0.416	0.423	0.466
456																																																																																					0.462	0.629	0.608	0.613	0.604	0.590	0.588	0.590	0.486	0.416	0.423	0.466
457																																																																																					0.461	0.628	0.607	0.613	0.603	0.590	0.588	0.589	0.486	0.415	0.422	0.465
458																																																																																					0.461	0.628	0.607	0.614	0.603	0.589	0.587	0.589	0.486	0.415	0.422	0.465
459																																																																																					0.460	0.628	0.607	0.613	0.603	0.589	0.587	0.588	0.485	0.415	0.421	0.465
460																																																																																					0.460	0.627	0.606	0.613	0.602	0.588	0.586	0.588	0.485	0.414	0.421	0.464
461																																																																																					0.460	0.627	0.606	0.612	0.602	0.588	0.586	0.587	0.484	0.414	0.421	0.464
462																																																																																					0.460	0.627	0.606	0.612	0.602	0.588	0.586	0.587	0.484	0.414	0.421	0.464
463																																																																																					0.460	0.627	0.606	0.611	0.602	0.588	0.586	0.587	0.484	0.414	0.421	0.464
464																																																																																					0.459	0.627	0.606	0.611	0.602	0.588	0.586	0.586	0.484	0.414	0.420	0.464
465																																																																																					0.459	0.628	0.606	0.612	0.602	0.587	0.586	0.586	0.484	0.413	0.420	0.464
466																																																																																					0.459	0.628	0.607	0.612	0.602	0.587	0.586	0.586	0.483	0.413	0.420	0.464
467																																																																																					0.459	0.628	0.607	0.612	0.603	0.588	0.586	0.586	0.483	0.413	0.420	0.464
468																																																																																					0.460	0.629	0.607	0.612	0.603	0.588	0.586	0.586	0.483	0.414	0.420	0.464
469																																																																																					0.460	0.629	0.608	0.613	0.603	0.588	0.587	0.586	0.484	0.414	0.421	0.465
470																																																																																					0.460	0.630	0.608	0.613	0.604	0.589	0.587	0.587	0.484	0.414	0.421	0.465
471																																																																																					0.460	0.631	0.609	0.614	0.605	0.589	0.588	0.587	0.484	0.414	0.421	0.465
472																																																																																					0.461	0.632	0.610	0.615	0.605	0.590	0.589	0.587	0.484	0.414	0.422	0.466
473																																																																																					0.461	0.633	0.611	0.616	0.606	0.591	0.589	0.588	0.485	0.415	0.422	0.466
474																																																																																					0.462	0.634	0.612	0.617	0.608	0.591	0.590	0.589	0.486	0.415	0.423	0.467
475																																																																																					0.463	0.636	0.614	0.619	0.609	0.593	0.592	0.590	0.486	0.416	0.423	0.468
476																																																																																					0.464	0.637	0.615	0.620	0.610	0.594	0.593	0.591	0.487	0.417	0.424	0.469
477																																																																																					0.465	0.639	0.617	0.623	0.612	0.595	0.595	0.592	0.488	0.418	0.425	0.470
478																																																																																					0.466	0.641	0.619	0.624	0.614	0.597	0.596	0.594	0.489	0.418	0.426	0.471
479																																																																																					0.468	0.644	0.621	0.626	0.616	0.599	0.598	0.595	0.491	0.419	0.427	0.473
480																																																																																					0.469	0.646	0.624	0.628	0.619	0.601	0.601	0.597	0.492	0.421	0.429	0.475
481																																																																																					0.471	0.650	0.627	0.633	0.622	0.604	0.603	0.600	0.494	0.422	0.431	0.477
482																																																																																					0.473	0.654	0.631	0.636	0.625	0.607	0.607	0.603	0.496	0.424	0.433	0.479
483																																																																																					0.475	0.657	0.634	0.640	0.628	0.609	0.609	0.605	0.498	0.426	0.434	0.481
484																																																																																					0.478	0.660	0.637	0.642	0.631	0.612	0.612	0.607	0.500	0.427	0.436	0.483
485																																																																																					0.479	0.663	0.640	0.642	0.634	0.615	0.615	0.610	0.502	0.429	0.438	0.485
486																																																																																					0.482	0.667	0.643	0.644	0.637	0.618	0.618	0.612	0.504	0.431	0.440	0.488
487																																																																																					0.485	0.672	0.648	0.650	0.642	0.622	0.622	0.616	0.507	0.434	0.443	0.491
488																																																																																					0.488	0.677	0.653	0.654	0.646	0.626	0.626	0.620	0.510	0.436	0.446	0.494
489																																																																																					0.491	0.682	0.658	0.659	0.651	0.630	0.631	0.624	0.513	0.439	0.448	0.498
490																																																																																					0.495	0.688	0.664	0.663	0.656	0.635	0.636	0.628	0.517	0.442	0.452	0.502
491																																																																																					0.499	0.696	0.671	0.670	0.663	0.641	0.642	0.634	0.521	0.446	0.455	0.506
492																																																																																					0.503	0.701	0.676	0.675	0.668	0.646	0.647	0.638	0.525	0.449	0.459	0.510
493																																																																																					0.507	0.707	0.682	0.680	0.674	0.651	0.652	0.643	0.528	0.452	0.462	0.514
494																																																																																					0.511	0.714	0.689	0.685	0.681	0.657	0.658	0.648	0.532	0.455	0.466	0.518
495																																																																																					0.516	0.723	0.697	0.694	0.689	0.664	0.666	0.655	0.538	0.460	0.471	0.524
496																																																																																					0.521	0.731	0.705	0.702	0.696	0.670	0.672	0.660	0.542	0.464	0.475	0.529
497																																																																																					0.527	0.740	0.713	0.710	0.704	0.678	0.680	0.667	0.547	0.468	0.479	0.535
498																																																																																					0.531	0.748	0.721	0.717	0.712	0.684	0.687	0.672	0.552	0.472	0.484	0.540
499																																																																																					0.535	0.755	0.728	0.723	0.718	0.690	0.693	0.677	0.556	0.475	0.487	0.545
500																																																																																					0.540	0.763	0.736	0.729	0.725	0.696	0.700	0.683	0.560	0.479	0.492	0.550
501																																																																																					0.545	0.772	0.745	0.737	0.733	0.703	0.707	0.689	0.565	0.483	0.496	0.555
502																																																																																					0.550	0.781	0.753	0.745	0.741	0.710	0.714	0.695	0.570	0.487	0.500	0.561
503																																																																																					0.555	0.789	0.761	0.753	0.749	0.716	0.721	0.700	0.574	0.491	0.504	0.566
504																																																																																					0.560	0.798	0.769	0.761	0.757	0.723	0.728	0.706	0.579	0.495	0.509	0.572
505																																																																																					0.564	0.805	0.776	0.767	0.763	0.728	0.734	0.710	0.582	0.497	0.512	0.576
506																																																																																					0.568	0.813	0.784	0.774	0.770	0.734	0.741	0.715	0.586	0.501	0.516	0.581
507																																																																																					0.572	0.821	0.791	0.780	0.776	0.740	0.746	0.719	0.589	0.504	0.519	0.585
508																																																																																					0.576	0.828	0.798	0.787	0.783	0.745	0.752	0.724	0.593	0.507	0.523	0.589
509																																																																																					0.579	0.835	0.804	0.793	0.789	0.749	0.758	0.727	0.596	0.509	0.526	0.593
510																																																																																					0.582	0.842	0.810	0.800	0.795	0.754	0.763	0.730	0.598	0.512	0.528	0.597
511																																																																																					0.584	0.847	0.816	0.805	0.799	0.757	0.767	0.733	0.600	0.514	0.531	0.600
512																																																																																					0.586	0.852	0.821	0.809	0.803	0.760	0.770	0.735	0.602	0.515	0.533	0.603
513																																																																																					0.588	0.856	0.824	0.812	0.807	0.763	0.773	0.737	0.604	0.516	0.534	0.605
514																																																																																					0.589	0.860	0.828	0.815	0.810	0.765	0.776	0.738	0.604	0.517	0.535	0.607
515																																																																																					0.590	0.862	0.830	0.818	0.812	0.766	0.777	0.738	0.605	0.518	0.536	0.608
516																																																																																					0.590	0.864	0.833	0.821	0.814	0.767	0.779	0.739	0.605	0.518	0.537	0.610
517																																																																																					0.590	0.866	0.834	0.822	0.815	0.767	0.780	0.738	0.605	0.518	0.537	0.610
518																																																																																					0.590	0.867	0.835	0.823	0.816	0.767	0.780	0.738	0.605	0.518	0.537	0.611
519																																																																																					0.589	0.868	0.836	0.824	0.816	0.767	0.780	0.737	0.605	0.518	0.537	0.611
520																																																																																					0.588	0.867	0.835	0.823	0.816	0.766	0.780	0.736	0.604	0.517	0.536	0.611
521																																																																																					0.587	0.867	0.835	0.823	0.815	0.764	0.779	0.734	0.603	0.516	0.535	0.610
522																																																																																					0.585	0.865	0.833	0.821	0.813	0.762	0.777	0.732	0.601	0.515	0.534	0.609
523																																																																																					0.583	0.863	0.831	0.820	0.811	0.760	0.775	0.730	0.599	0.514	0.533	0.608
524																																																																																					0.580	0.860	0.829	0.818	0.808	0.757	0.772	0.727	0.597	0.512	0.531	0.606
525																																																																																					0.578	0.857	0.826	0.816	0.805	0.754	0.770	0.724	0.595	0.510	0.529	0.604
526																																																																																					0.575	0.854	0.822	0.813	0.802	0.751	0.766	0.721	0.593	0.508	0.527	0.602
527																																																																																					0.571	0.849	0.818	0.809	0.798	0.747	0.763	0.718	0.590	0.506	0.525	0.599
528																																																																																					0.568	0.845	0.814	0.806	0.794	0.743	0.759	0.714	0.587	0.504	0.523	0.597
529																																																																																					0.566	0.842	0.811	0.803	0.790	0.740	0.756	0.711	0.585	0.502	0.520	0.594
530																																																																																					0.563	0.837	0.806	0.797	0.787	0.736	0.752	0.708	0.583	0.500	0.518	0.592
531																																																																																					0.559	0.832	0.801	0.793	0.782	0.732	0.747	0.704	0.580	0.498	0.515	0.589
532																																																																																					0.554	0.825	0.795	0.787	0.775	0.726	0.741	0.699	0.576	0.494	0.512	0.585
533																																																																																					0.549	0.819	0.789	0.782	0.769	0.720	0.736	0.694	0.572	0.491	0.508	0.581
534																																																																																					0.545	0.813	0.783	0.777	0.763	0.715	0.731	0.690	0.569	0.488	0.505	0.577
535																																																																																					0.540	0.806	0.777	0.771	0.757	0.709	0.724	0.685	0.565	0.485	0.502	0.573
536																																																																																					0.536	0.800	0.771	0.765	0.751	0.704	0.719	0.681	0.561	0.482	0.498	0.569
537																																																																																					0.531	0.792	0.763	0.759	0.745	0.698	0.712	0.675	0.557	0.479	0.494	0.564
538																																																																																					0.526	0.785	0.757	0.753	0.737	0.691	0.706	0.670	0.553	0.475	0.490	0.559
539																																																																																					0.520	0.777	0.748	0.745	0.730	0.684	0.698	0.664	0.548	0.471	0.485	0.554
540																																																																																					0.514	0.768	0.740	0.737	0.721	0.677	0.691	0.657	0.543	0.467	0.481	0.548
541																																																																																					0.509	0.761	0.734	0.732	0.715	0.671	0.684	0.652	0.539	0.464	0.477	0.544
542																																																																																					0.505	0.754	0.727	0.724	0.708	0.665	0.678	0.647	0.535	0.460	0.473	0.539
543																																																																																					0.500	0.748	0.721	0.719	0.701	0.659	0.672	0.642	0.531	0.457	0.470	0.535
544																																																																																					0.494	0.740	0.713	0.711	0.694	0.651	0.664	0.635	0.526	0.453	0.465	0.529
545																																																																																					0.488	0.731	0.704	0.703	0.685	0.643	0.656	0.629	0.520	0.448	0.460	0.523
546																																																																																					0.482	0.723	0.696	0.697	0.676	0.636	0.648	0.622	0.515	0.444	0.455	0.517
547																																																																																					0.476	0.715	0.688	0.690	0.668	0.628	0.640	0.616	0.510	0.440	0.450	0.512
548																																																																																					0.471	0.708	0.682	0.683	0.661	0.622	0.633	0.610	0.505	0.436	0.446	0.507
549																																																																																					0.466	0.701	0.675	0.677	0.654	0.615	0.626	0.604	0.500	0.432	0.442	0.501
550																																																																																					0.460	0.693	0.667	0.669	0.646	0.606	0.618	0.596	0.495	0.427	0.436	0.495
551																																																																																					0.454	0.685	0.659	0.663	0.638	0.599	0.610	0.589	0.489	0.422	0.431	0.489
552																																																																																					0.448	0.677	0.652	0.655	0.630	0.591	0.602	0.582	0.484	0.417	0.426	0.483
553																																																																																					0.443	0.670	0.645	0.649	0.622	0.583	0.594	0.575	0.478	0.413	0.421	0.477
554																																																																																					0.437	0.663	0.638	0.643	0.614	0.575	0.587	0.568	0.472	0.408	0.416	0.471
555																																																																																					0.431	0.656	0.631	0.637	0.607	0.568	0.579	0.561	0.467	0.404	0.411	0.466
556																																																																																					0.425	0.649	0.624	0.629	0.599	0.560	0.571	0.553	0.461	0.398	0.405	0.459
557																																																																																					0.420	0.642	0.617	0.624	0.591	0.552	0.563	0.546	0.455	0.394	0.400	0.453
558																																																																																					0.414	0.635	0.610	0.617	0.583	0.544	0.555	0.538	0.449	0.388	0.394	0.447
559																																																																																					0.408	0.628	0.604	0.611	0.575	0.536	0.548	0.530	0.443	0.383	0.389	0.440
560																																																																																					0.403	0.623	0.598	0.606	0.569	0.529	0.541	0.523	0.437	0.378	0.384	0.435
561																																																																																					0.398	0.617	0.592	0.601	0.562	0.521	0.533	0.516	0.431	0.373	0.379	0.429
562																																																																																					0.393	0.612	0.587	0.596	0.555	0.514	0.527	0.508	0.425	0.368	0.373	0.423
563																																																																																					0.388	0.607	0.582	0.592	0.549	0.507	0.521	0.501	0.419	0.363	0.369	0.418
564																																																																																					0.384	0.602	0.577	0.587	0.544	0.500	0.514	0.494	0.414	0.358	0.364	0.413
565																																																																																					0.378	0.597	0.572	0.582	0.536	0.493	0.507	0.486	0.407	0.353	0.358	0.406
566																																																																																					0.374	0.592	0.568	0.578	0.531	0.486	0.500	0.478	0.401	0.348	0.353	0.401
567																																																																																					0.369	0.588	0.563	0.573	0.525	0.479	0.495	0.471	0.395	0.343	0.348	0.396
568																																																																																					0.365	0.584	0.559	0.570	0.520	0.473	0.489	0.464	0.390	0.338	0.343	0.391
569																																																																																					0.361	0.580	0.555	0.566	0.514	0.466	0.482	0.457	0.384	0.333	0.338	0.385
570																																																																																					0.356	0.577	0.552	0.563	0.509	0.460	0.477	0.449	0.378	0.327	0.333	0.380
571																																																																																					0.352	0.573	0.548	0.559	0.504	0.453	0.471	0.441	0.372	0.322	0.328	0.375
572																																																																																					0.347	0.571	0.545	0.556	0.499	0.447	0.465	0.434	0.366	0.317	0.323	0.370
573																																																																																					0.344	0.568	0.542	0.554	0.495	0.442	0.461	0.428	0.361	0.313	0.319	0.366
574																																																																																					0.340	0.566	0.540	0.551	0.491	0.435	0.456	0.421	0.355	0.307	0.314	0.361
575																																																																																					0.337	0.564	0.538	0.549	0.487	0.430	0.451	0.414	0.350	0.303	0.310	0.357
576																																																																																					0.333	0.562	0.536	0.548	0.483	0.425	0.447	0.408	0.345	0.298	0.305	0.352
577																																																																																					0.330	0.560	0.534	0.545	0.479	0.419	0.443	0.401	0.340	0.294	0.301	0.348
578																																																																																					0.326	0.559	0.532	0.544	0.476	0.414	0.439	0.394	0.334	0.289	0.297	0.344
579																																																																																					0.323	0.558	0.531	0.543	0.472	0.409	0.434	0.387	0.329	0.284	0.292	0.340
580																																																																																					0.319	0.557	0.530	0.542	0.469	0.404	0.430	0.381	0.323	0.280	0.288	0.336
581																																																																																					0.316	0.557	0.530	0.541	0.467	0.399	0.427	0.374	0.318	0.275	0.284	0.332
582																																																																																					0.313	0.557	0.529	0.541	0.465	0.395	0.424	0.369	0.314	0.271	0.280	0.329
583																																																																																					0.310	0.557	0.530	0.541	0.462	0.391	0.421	0.362	0.309	0.266	0.276	0.325
584																																																																																					0.307	0.558	0.530	0.542	0.460	0.386	0.417	0.356	0.304	0.262	0.272	0.322
585																																																																																					0.304	0.559	0.531	0.542	0.459	0.382	0.415	0.351	0.299	0.258	0.268	0.319
586																																																																																					0.302	0.561	0.532	0.543	0.457	0.379	0.412	0.345	0.295	0.254	0.265	0.316
587																																																																																					0.299	0.563	0.534	0.545	0.456	0.375	0.410	0.339	0.290	0.250	0.261	0.313
588																																																																																					0.297	0.564	0.535	0.547	0.456	0.372	0.409	0.335	0.287	0.247	0.259	0.311
589																																																																																					0.295	0.567	0.537	0.548	0.455	0.369	0.407	0.331	0.283	0.244	0.256	0.309
590																																																																																					0.293	0.570	0.540	0.551	0.455	0.366	0.406	0.326	0.279	0.241	0.253	0.307
591																																																																																					0.291	0.573	0.542	0.553	0.455	0.364	0.405	0.321	0.276	0.237	0.250	0.305
592																																																																																					0.290	0.576	0.546	0.556	0.455	0.361	0.403	0.317	0.272	0.234	0.248	0.303
593																																																																																					0.288	0.580	0.549	0.560	0.456	0.359	0.403	0.313	0.269	0.232	0.245	0.302
594																																																																																					0.287	0.585	0.553	0.564	0.457	0.357	0.402	0.309	0.266	0.229	0.243	0.300
595																																																																																					0.286	0.590	0.558	0.567	0.458	0.355	0.402	0.305	0.263	0.226	0.240	0.299
596																																																																																					0.285	0.595	0.562	0.572	0.459	0.353	0.402	0.301	0.260	0.223	0.238	0.297
597																																																																																					0.284	0.600	0.566	0.575	0.461	0.352	0.402	0.298	0.257	0.221	0.237	0.296
598																																																																																					0.283	0.605	0.571	0.580	0.463	0.351	0.402	0.295	0.255	0.219	0.235	0.296
599																																																																																					0.282	0.612	0.577	0.584	0.466	0.350	0.403	0.292	0.252	0.217	0.233	0.295
600																																																																																					0.282	0.619	0.583	0.590	0.468	0.349	0.404	0.288	0.249	0.214	0.231	0.294
601																																																																																					0.281	0.627	0.590	0.598	0.471	0.348	0.405	0.285	0.247	0.212	0.230	0.294
602																																																																																					0.281	0.635	0.598	0.604	0.475	0.347	0.406	0.282	0.244	0.209	0.228	0.294
603																																																																																					0.281	0.643	0.604	0.611	0.478	0.347	0.408	0.279	0.242	0.208	0.226	0.293
604																																																																																					0.281	0.651	0.612	0.617	0.482	0.346	0.410	0.277	0.240	0.206	0.225	0.294
605																																																																																					0.281	0.658	0.617	0.622	0.485	0.346	0.411	0.275	0.238	0.204	0.224	0.294
606																																																																																					0.281	0.665	0.625	0.628	0.489	0.346	0.413	0.272	0.236	0.203	0.223	0.294
607																																																																																					0.282	0.674	0.633	0.635	0.494	0.346	0.415	0.270	0.235	0.201	0.222	0.294
608																																																																																					0.282	0.685	0.642	0.645	0.499	0.347	0.418	0.268	0.233	0.200	0.221	0.295
609																																																																																					0.283	0.695	0.651	0.653	0.504	0.347	0.421	0.265	0.231	0.198	0.220	0.296
610																																																																																					0.284	0.705	0.659	0.661	0.510	0.348	0.424	0.264	0.230	0.197	0.219	0.296
611																																																																																					0.284	0.715	0.668	0.668	0.515	0.349	0.427	0.262	0.229	0.196	0.219	0.297
612																																																																																					0.286	0.725	0.678	0.676	0.520	0.350	0.430	0.260	0.227	0.194	0.218	0.298
613																																																																																					0.287	0.736	0.688	0.686	0.527	0.351	0.434	0.258	0.226	0.193	0.217	0.299
614																																																																																					0.288	0.749	0.698	0.696	0.534	0.352	0.438	0.257	0.224	0.192	0.217	0.301
615																																																																																					0.289	0.761	0.710	0.706	0.541	0.354	0.442	0.255	0.223	0.191	0.216	0.302
616																																																																																					0.291	0.774	0.721	0.717	0.548	0.355	0.447	0.254	0.222	0.190	0.216	0.304
617																																																																																					0.293	0.786	0.732	0.727	0.556	0.357	0.452	0.252	0.221	0.189	0.216	0.306
618																																																																																					0.295	0.799	0.744	0.737	0.564	0.359	0.457	0.251	0.220	0.188	0.215	0.308
619																																																																																					0.297	0.812	0.755	0.748	0.572	0.361	0.461	0.250	0.219	0.187	0.215	0.310
620																																																																																					0.299	0.828	0.769	0.760	0.581	0.364	0.468	0.248	0.218	0.186	0.215	0.312
621																																																																																					0.301	0.842	0.782	0.771	0.590	0.366	0.473	0.247	0.217	0.186	0.215	0.315
622																																																																																					0.304	0.856	0.795	0.783	0.600	0.369	0.480	0.246	0.216	0.185	0.215	0.317
623																																																																																					0.307	0.871	0.808	0.795	0.609	0.372	0.486	0.245	0.215	0.184	0.215	0.320
624																																																																																					0.310	0.885	0.821	0.807	0.618	0.375	0.492	0.244	0.215	0.184	0.216	0.323
625																																																																																					0.312	0.898	0.833	0.817	0.627	0.378	0.498	0.244	0.214	0.183	0.216	0.326
626																																																																																					0.315	0.913	0.846	0.829	0.638	0.382	0.505	0.243	0.214	0.183	0.216	0.329
627																																																																																					0.319	0.928	0.860	0.842	0.648	0.385	0.512	0.242	0.213	0.182	0.217	0.333
628																																																																																					0.322	0.943	0.873	0.853	0.658	0.389	0.519	0.242	0.213	0.182	0.217	0.336
629																																																																																					0.326	0.958	0.886	0.866	0.669	0.393	0.527	0.241	0.212	0.182	0.218	0.340
630																																																																																					0.329	0.973	0.901	0.878	0.681	0.397	0.535	0.241	0.212	0.181	0.219	0.343
631																																																																																					0.334	0.989	0.915	0.891	0.693	0.402	0.544	0.240	0.212	0.181	0.220	0.347
632																																																																																					0.338	1.004	0.929	0.904	0.704	0.406	0.552	0.240	0.212	0.181	0.220	0.352
633																																																																																					0.342	1.020	0.944	0.917	0.716	0.411	0.561	0.240	0.211	0.181	0.221	0.356
634																																																																																					0.347	1.036	0.957	0.929	0.728	0.416	0.570	0.240	0.211	0.181	0.222	0.361
635																																																																																					0.351	1.052	0.972	0.943	0.742	0.422	0.580	0.239	0.211	0.180	0.223	0.366
636																																																																																					0.356	1.067	0.987	0.956	0.755	0.427	0.589	0.239	0.211	0.181	0.224	0.371
637																																																																																					0.362	1.082	1.001	0.968	0.767	0.433	0.599	0.239	0.211	0.180	0.226	0.376
638																																																																																					0.367	1.098	1.016	0.981	0.781	0.439	0.609	0.239	0.211	0.180	0.227	0.382
639																																																																																					0.373	1.115	1.031	0.995	0.795	0.446	0.620	0.239	0.211	0.181	0.228	0.388
640																																																																																					0.379	1.130	1.046	1.008	0.809	0.453	0.631	0.239	0.212	0.181	0.230	0.393
641																																																																																					0.385	1.145	1.060	1.021	0.823	0.459	0.642	0.240	0.212	0.181	0.231	0.400
642																																																																																					0.392	1.161	1.075	1.034	0.838	0.467	0.654	0.240	0.212	0.181	0.233	0.406
643																																																																																					0.398	1.176	1.089	1.047	0.852	0.474	0.666	0.240	0.212	0.181	0.235	0.413
644																																																																																					0.405	1.190	1.103	1.059	0.867	0.481	0.678	0.241	0.213	0.182	0.237	0.419
645																																																																																					0.412	1.206	1.117	1.072	0.882	0.489	0.690	0.241	0.213	0.182	0.239	0.427
646																																																																																					0.419	1.219	1.131	1.083	0.897	0.498	0.702	0.241	0.214	0.183	0.241	0.434
647																																																																																					0.427	1.234	1.145	1.096	0.913	0.506	0.715	0.242	0.214	0.183	0.243	0.442
648																																																																																					0.435	1.247	1.158	1.108	0.928	0.515	0.728	0.243	0.215	0.184	0.245	0.449
649																																																																																					0.444	1.261	1.172	1.120	0.944	0.524	0.742	0.244	0.216	0.184	0.248	0.458
650																																																																																					0.452	1.274	1.185	1.131	0.959	0.533	0.755	0.244	0.216	0.185	0.250	0.466
651																																																																																					0.461	1.287	1.198	1.142	0.975	0.543	0.769	0.245	0.217	0.185	0.253	0.474
652																																																																																					0.469	1.298	1.209	1.152	0.990	0.552	0.781	0.246	0.218	0.186	0.255	0.482
653																																																																																					0.476	1.308	1.219	1.162	1.003	0.561	0.793	0.247	0.219	0.187	0.257	0.490
654																																																																																					0.486	1.320	1.231	1.172	1.018	0.571	0.807	0.248	0.220	0.188	0.260	0.499
655																																																																																					0.495	1.331	1.242	1.182	1.034	0.582	0.821	0.249	0.221	0.188	0.263	0.509
656																																																																																					0.505	1.342	1.254	1.192	1.049	0.592	0.836	0.250	0.222	0.189	0.267	0.518
657																																																																																					0.516	1.352	1.265	1.202	1.065	0.604	0.851	0.251	0.223	0.190	0.270	0.528
658																																																																																					0.526	1.362	1.275	1.211	1.081	0.616	0.866	0.253	0.224	0.191	0.273	0.538
659																																																																																					0.537	1.371	1.286	1.220	1.097	0.627	0.881	0.254	0.225	0.192	0.277	0.549
660																																																																																					0.546	1.379	1.294	1.227	1.111	0.638	0.895	0.256	0.227	0.193	0.280	0.558
661																																																																																					0.557	1.387	1.304	1.235	1.127	0.651	0.910	0.257	0.228	0.195	0.284	0.569
662																																																																																					0.569	1.395	1.313	1.243	1.142	0.664	0.926	0.259	0.229	0.196	0.288	0.580
663																																																																																					0.581	1.403	1.321	1.250	1.157	0.677	0.942	0.261	0.231	0.197	0.293	0.592
664																																																																																					0.592	1.409	1.329	1.257	1.172	0.690	0.957	0.262	0.233	0.198	0.297	0.603
665																																																																																					0.604	1.415	1.336	1.263	1.186	0.703	0.972	0.264	0.234	0.200	0.301	0.614
666																																																																																					0.615	1.420	1.342	1.268	1.199	0.715	0.987	0.266	0.236	0.201	0.305	0.625
667																																																																																					0.628	1.425	1.349	1.275	1.215	0.730	1.003	0.268	0.238	0.203	0.310	0.637
668																																																																																					0.641	1.430	1.355	1.280	1.229	0.745	1.020	0.270	0.239	0.204	0.316	0.650
669																																																																																					0.653	1.434	1.361	1.285	1.244	0.759	1.035	0.272	0.241	0.206	0.321	0.662
670																																																																																					0.667	1.438	1.366	1.288	1.257	0.773	1.050	0.275	0.244	0.208	0.326	0.674
671																																																																																					0.679	1.440	1.371	1.292	1.270	0.788	1.066	0.277	0.246	0.209	0.331	0.687
672																																																																																					0.692	1.442	1.374	1.296	1.282	0.803	1.081	0.279	0.248	0.211	0.337	0.699
673																																																																																					0.705	1.444	1.378	1.298	1.295	0.818	1.096	0.282	0.250	0.213	0.343	0.712
674																																																																																					0.720	1.445	1.381	1.301	1.308	0.834	1.113	0.285	0.253	0.215	0.349	0.726
675																																																																																					0.733	1.445	1.384	1.303	1.320	0.850	1.127	0.288	0.255	0.217	0.355	0.739
676																																																																																					0.748	1.445	1.386	1.304	1.333	0.866	1.143	0.291	0.258	0.220	0.362	0.752
677																																																																																					0.761	1.445	1.387	1.306	1.344	0.882	1.159	0.294	0.260	0.222	0.368	0.765
678																																																																																					0.775	1.444	1.388	1.307	1.355	0.899	1.174	0.297	0.263	0.224	0.376	0.779
679																																																																																					0.790	1.442	1.389	1.307	1.366	0.915	1.189	0.300	0.266	0.227	0.383	0.792
680																																																																																					0.804	1.440	1.389	1.306	1.377	0.932	1.204	0.304	0.269	0.229	0.390	0.807
681																																																																																					0.819	1.437	1.389	1.306	1.387	0.949	1.219	0.308	0.273	0.232	0.398	0.821
682																																																																																					0.833	1.433	1.387	1.304	1.396	0.966	1.233	0.311	0.276	0.235	0.406	0.834
683																																																																																					0.848	1.429	1.386	1.302	1.405	0.982	1.246	0.315	0.279	0.238	0.413	0.847
684																																																																																					0.862	1.425	1.384	1.300	1.414	0.999	1.261	0.319	0.283	0.241	0.422	0.861
685																																																																																					0.877	1.420	1.381	1.298	1.422	1.017	1.275	0.323	0.286	0.244	0.430	0.876
686																																																																																					0.893	1.414	1.378	1.295	1.431	1.036	1.290	0.328	0.291	0.247	0.440	0.891
687																																																																																					0.908	1.407	1.375	1.291	1.438	1.055	1.303	0.333	0.295	0.251	0.449	0.906
688																																																																																					0.923	1.400	1.370	1.287	1.446	1.073	1.317	0.338	0.299	0.255	0.459	0.920
689																																																																																					0.938	1.393	1.366	1.283	1.452	1.091	1.331	0.343	0.304	0.259	0.469	0.934
690																																																																																					0.953	1.386	1.361	1.278	1.458	1.108	1.342	0.348	0.308	0.262	0.478	0.948
691																																																																																					0.966	1.378	1.356	1.274	1.463	1.124	1.354	0.353	0.312	0.266	0.488	0.961
692																																																																																					0.981	1.370	1.350	1.269	1.468	1.143	1.366	0.358	0.317	0.270	0.498	0.974
693																																																																																					0.996	1.360	1.343	1.262	1.473	1.161	1.378	0.364	0.323	0.275	0.509	0.989
694																																																																																					1.010	1.351	1.337	1.256	1.477	1.179	1.389	0.370	0.328	0.279	0.520	1.002
695																																																																																					1.024	1.342	1.330	1.250	1.480	1.196	1.399	0.376	0.333	0.284	0.531	1.015
696																																																																																					1.038	1.332	1.322	1.242	1.483	1.214	1.411	0.383	0.339	0.289	0.542	1.029
697																																																																																					1.053	1.320	1.314	1.234	1.486	1.234	1.422	0.390	0.345	0.294	0.555	1.043
698																																																																																					1.065	1.311	1.306	1.228	1.488	1.250	1.431	0.396	0.351	0.299	0.566	1.055
699																																																																																					1.079	1.300	1.298	1.220	1.490	1.266	1.440	0.403	0.357	0.304	0.577	1.068
700																																																																																					1.091	1.290	1.290	1.214	1.491	1.282	1.448	0.409	0.362	0.309	0.588	1.079
701																																																																																					1.103	1.279	1.281	1.205	1.492	1.298	1.456	0.417	0.369	0.315	0.600	1.091
702																																																																																					1.116	1.268	1.272	1.196	1.492	1.315	1.464	0.424	0.376	0.321	0.613	1.103
703																																																																																					1.129	1.254	1.262	1.186	1.492	1.333	1.473	0.433	0.383	0.327	0.627	1.116
704																																																																																					1.141	1.242	1.251	1.177	1.491	1.350	1.480	0.441	0.391	0.334	0.639	1.127
705																																																																																					1.152	1.230	1.242	1.167	1.489	1.366	1.486	0.450	0.398	0.340	0.653	1.138
706																																																																																					1.163	1.218	1.231	1.157	1.488	1.382	1.493	0.459	0.406	0.347	0.665	1.149
707																																																																																					1.174	1.206	1.221	1.146	1.486	1.398	1.499	0.467	0.414	0.354	0.679	1.160
708																																																																																					1.185	1.193	1.210	1.136	1.484	1.413	1.505	0.476	0.422	0.361	0.692	1.170
709																																																																																					1.196	1.180	1.199	1.126	1.481	1.429	1.510	0.486	0.431	0.369	0.707	1.180
710																																																																																					1.206	1.168	1.188	1.116	1.478	1.444	1.515	0.495	0.439	0.376	0.720	1.190
711																																																																																					1.216	1.155	1.177	1.106	1.474	1.459	1.520	0.506	0.448	0.384	0.734	1.199
712																																																																																					1.225	1.143	1.167	1.097	1.470	1.472	1.523	0.515	0.456	0.392	0.747	1.208
713																																																																																					1.235	1.130	1.155	1.087	1.466	1.487	1.527	0.526	0.466	0.400	0.762	1.217
714																																																																																					1.244	1.116	1.143	1.077	1.462	1.501	1.529	0.537	0.476	0.409	0.777	1.225
715																																																																																					1.253	1.103	1.131	1.067	1.456	1.515	1.532	0.548	0.486	0.418	0.791	1.234
716																																																																																					1.262	1.090	1.120	1.057	1.451	1.528	1.534	0.559	0.496	0.427	0.806	1.241
717																																																																																					1.270	1.077	1.108	1.047	1.446	1.541	1.537	0.571	0.507	0.436	0.820	1.248
718																																																																																					1.277	1.064	1.097	1.038	1.440	1.553	1.538	0.583	0.517	0.445	0.834	1.256
719																																																																																					1.285	1.051	1.085	1.026	1.433	1.565	1.538	0.595	0.528	0.455	0.849	1.262
720																																																																																					1.291	1.038	1.073	1.017	1.426	1.576	1.539	0.607	0.539	0.464	0.863	1.268
721																																																																																					1.298	1.024	1.060	1.006	1.419	1.588	1.539	0.620	0.550	0.475	0.878	1.274
722																																																																																					1.304	1.010	1.047	0.995	1.411	1.600	1.539	0.634	0.563	0.486	0.894	1.280
723																																																																																					1.310	0.997	1.035	0.984	1.404	1.611	1.538	0.648	0.575	0.496	0.910	1.285
724																																																																																					1.315	0.984	1.023	0.973	1.396	1.621	1.537	0.662	0.587	0.507	0.924	1.290
725																																																																																					1.320	0.971	1.010	0.962	1.387	1.631	1.535	0.676	0.600	0.519	0.940	1.295
726																																																																																					1.325	0.958	0.998	0.950	1.379	1.640	1.533	0.691	0.613	0.530	0.954	1.299
727																																																																																					1.329	0.945	0.986	0.939	1.370	1.650	1.531	0.706	0.626	0.542	0.970	1.302
728																																																																																					1.333	0.931	0.973	0.929	1.361	1.659	1.528	0.721	0.640	0.554	0.985	1.306
729																																																																																					1.337	0.919	0.961	0.918	1.351	1.667	1.525	0.737	0.654	0.567	1.000	1.309
730																																																																																					1.339	0.906	0.949	0.907	1.343	1.675	1.522	0.753	0.668	0.580	1.014	1.312
731																																																																																					1.342	0.893	0.936	0.895	1.332	1.682	1.518	0.770	0.683	0.593	1.029	1.314
732																																																																																					1.345	0.881	0.925	0.885	1.323	1.689	1.514	0.786	0.697	0.606	1.044	1.316
733																																																																																					1.346	0.869	0.913	0.874	1.313	1.696	1.510	0.803	0.712	0.619	1.058	1.317
734																																																																																					1.348	0.857	0.902	0.864	1.303	1.702	1.505	0.819	0.726	0.632	1.072	1.318
735																																																																																					1.349	0.846	0.890	0.854	1.292	1.707	1.500	0.836	0.741	0.645	1.087	1.319
736																																																																																					1.350	0.832	0.878	0.842	1.282	1.713	1.494	0.855	0.757	0.660	1.101	1.319
737																																																																																					1.350	0.820	0.865	0.831	1.270	1.718	1.488	0.873	0.773	0.674	1.115	1.319
738																																																																																					1.349	0.807	0.852	0.819	1.258	1.722	1.480	0.894	0.791	0.691	1.130	1.318
739																																																																																					1.349	0.794	0.840	0.807	1.247	1.726	1.473	0.913	0.807	0.706	1.144	1.317
740																																																																																					1.348	0.783	0.828	0.797	1.235	1.729	1.467	0.931	0.824	0.720	1.157	1.315
741																																																																																					1.347	0.771	0.816	0.787	1.223	1.732	1.458	0.950	0.840	0.735	1.170	1.313
742																																																																																					1.345	0.760	0.804	0.776	1.212	1.734	1.451	0.969	0.857	0.750	1.183	1.311
743																																																																																					1.343	0.748	0.793	0.765	1.200	1.736	1.443	0.988	0.874	0.765	1.196	1.308
744																																																																																					1.340	0.736	0.781	0.755	1.188	1.738	1.434	1.010	0.891	0.781	1.208	1.305
745																																																																																					1.337	0.725	0.769	0.745	1.176	1.738	1.425	1.030	0.908	0.798	1.220	1.302
746																																																																																					1.334	0.714	0.758	0.734	1.164	1.738	1.417	1.050	0.926	0.813	1.232	1.298
747																																																																																					1.331	0.702	0.746	0.723	1.151	1.738	1.407	1.071	0.944	0.830	1.244	1.294
748																																																																																					1.326	0.691	0.735	0.713	1.139	1.737	1.398	1.093	0.962	0.846	1.255	1.289
749																																																																																					1.323	0.680	0.723	0.702	1.126	1.737	1.388	1.114	0.980	0.862	1.266	1.284
750																																																																																					1.319	0.670	0.713	0.693	1.113	1.735	1.378	1.135	0.998	0.879	1.277	1.279
751																																																																																					1.314	0.659	0.702	0.684	1.102	1.734	1.368	1.156	1.016	0.895	1.287	1.274
752																																																																																					1.309	0.649	0.692	0.674	1.090	1.731	1.359	1.176	1.033	0.910	1.296	1.268
753																																																																																					1.304	0.639	0.682	0.665	1.078	1.729	1.349	1.197	1.051	0.926	1.306	1.262
754																																																																																					1.298	0.630	0.671	0.655	1.065	1.726	1.338	1.218	1.069	0.943	1.315	1.256
755																																																																																					1.293	0.620	0.661	0.645	1.053	1.723	1.327	1.241	1.088	0.960	1.324	1.250
756																																																																																					1.286	0.610	0.651	0.637	1.040	1.719	1.316	1.263	1.106	0.976	1.333	1.243
757																																																																																					1.280	0.600	0.641	0.627	1.028	1.714	1.305	1.286	1.125	0.994	1.341	1.236
758																																																																																					1.274	0.591	0.631	0.617	1.016	1.710	1.294	1.308	1.144	1.010	1.349	1.229
759																																																																																					1.267	0.581	0.620	0.609	1.003	1.704	1.282	1.331	1.163	1.028	1.357	1.221
760																																																																																					1.260	0.572	0.611	0.600	0.991	1.699	1.271	1.354	1.181	1.045	1.364	1.213
761																																																																																					1.251	0.562	0.600	0.590	0.977	1.693	1.258	1.379	1.202	1.064	1.372	1.204
762																																																																																					1.243	0.552	0.590	0.581	0.964	1.686	1.245	1.404	1.223	1.082	1.379	1.195
763																																																																																					1.235	0.542	0.579	0.572	0.950	1.680	1.232	1.430	1.243	1.101	1.386	1.185
764																																																																																					1.229	0.535	0.571	0.565	0.940	1.674	1.221	1.449	1.260	1.116	1.391	1.178
765																																																																																					1.223	0.528	0.565	0.559	0.931	1.669	1.213	1.467	1.274	1.129	1.395	1.171
766																																																																																					1.216	0.521	0.556	0.553	0.920	1.663	1.202	1.487	1.291	1.143	1.400	1.163
767																																																																																					1.208	0.512	0.547	0.545	0.907	1.655	1.189	1.510	1.310	1.161	1.404	1.154
768																																																																																					1.199	0.504	0.538	0.536	0.895	1.647	1.176	1.535	1.330	1.179	1.409	1.144
769																																																																																					1.190	0.495	0.530	0.527	0.883	1.638	1.163	1.559	1.347	1.195	1.413	1.134
770																																																																																					1.181	0.487	0.521	0.520	0.870	1.629	1.151	1.581	1.366	1.212	1.416	1.124
771																																																																																					1.172	0.480	0.513	0.513	0.860	1.621	1.139	1.603	1.383	1.226	1.419	1.115
772																																																																																					1.164	0.472	0.505	0.504	0.848	1.612	1.127	1.625	1.401	1.242	1.422	1.105
773																																																																																					1.155	0.465	0.497	0.497	0.836	1.603	1.115	1.648	1.420	1.259	1.424	1.095
774																																																																																					1.146	0.458	0.489	0.491	0.825	1.594	1.103	1.670	1.437	1.274	1.426	1.085
775																																																																																					1.136	0.450	0.481	0.483	0.813	1.584	1.090	1.692	1.454	1.290	1.428	1.074
776																																																																																					1.127	0.443	0.473	0.476	0.802	1.573	1.077	1.715	1.472	1.306	1.429	1.064
777																																																																																					1.117	0.437	0.466	0.470	0.792	1.565	1.066	1.736	1.488	1.319	1.429	1.054
778																																																																																					1.108	0.429	0.459	0.463	0.780	1.554	1.053	1.758	1.506	1.335	1.430	1.043
779																																																																																					1.098	0.423	0.451	0.457	0.769	1.543	1.041	1.780	1.522	1.349	1.430	1.032
780																																																																																					1.088	0.416	0.444	0.450	0.758	1.532	1.028	1.802	1.538	1.364	1.430	1.022
781																																																																																					1.078	0.409	0.436	0.443	0.747	1.520	1.014	1.827	1.557	1.380	1.429	1.010
782																																																																																					1.068	0.403	0.430	0.437	0.736	1.510	1.002	1.847	1.573	1.394	1.427	0.999
783																																																																																					1.059	0.396	0.423	0.430	0.725	1.499	0.990	1.868	1.589	1.408	1.427	0.989
784																																																																																					1.049	0.390	0.415	0.424	0.714	1.486	0.978	1.889	1.605	1.421	1.425	0.977
785																																																																																					1.039	0.384	0.409	0.418	0.704	1.475	0.965	1.910	1.620	1.435	1.423	0.966
786																																																																																					1.028	0.377	0.402	0.411	0.693	1.462	0.952	1.931	1.636	1.449	1.420	0.954
787																																																																																					1.018	0.372	0.395	0.406	0.683	1.450	0.939	1.953	1.651	1.461	1.417	0.943
788																																																																																					1.007	0.366	0.389	0.400	0.672	1.438	0.927	1.972	1.665	1.474	1.413	0.931
789																																																																																					0.998	0.361	0.383	0.394	0.663	1.426	0.916	1.992	1.679	1.485	1.410	0.921
790																																																																																					0.989	0.355	0.377	0.390	0.654	1.415	0.904	2.010	1.692	1.496	1.407	0.910
791																																																																																					0.978	0.350	0.371	0.385	0.644	1.402	0.892	2.028	1.706	1.507	1.402	0.899
792																																																																																					0.968	0.344	0.365	0.379	0.634	1.389	0.879	2.048	1.719	1.519	1.398	0.888
793																																																																																					0.958	0.339	0.360	0.374	0.625	1.377	0.868	2.066	1.732	1.529	1.393	0.877
794																																																																																					0.948	0.334	0.354	0.368	0.615	1.363	0.857	2.084	1.744	1.539	1.388	0.866
795																																																																																					0.936	0.328	0.347	0.363	0.604	1.348	0.842	2.104	1.758	1.551	1.381	0.852
796																																																																																					0.927	0.323	0.343	0.358	0.596	1.337	0.831	2.119	1.769	1.560	1.376	0.843
797																																																																																					0.917	0.318	0.337	0.353	0.587	1.324	0.819	2.136	1.780	1.569	1.370	0.832
798																																																																																					0.907	0.314	0.332	0.349	0.578	1.311	0.808	2.152	1.791	1.577	1.363	0.821
799																																																																																					0.897	0.309	0.326	0.345	0.569	1.298	0.797	2.170	1.801	1.585	1.357	0.810
800																																																																																					0.887	0.304	0.322	0.340	0.560	1.284	0.786	2.182	1.811	1.593	1.349	0.799
801																																																																																					0.876	0.299	0.316	0.335	0.551	1.270	0.774	2.199	1.821	1.601	1.342	0.787
802																																																																																					0.867	0.295	0.311	0.331	0.543	1.257	0.763	2.212	1.830	1.608	1.335	0.777
803																																																																																					0.857	0.291	0.307	0.326	0.535	1.245	0.752	2.225	1.838	1.614	1.327	0.767
804																																																																																					0.848	0.287	0.302	0.322	0.527	1.231	0.742	2.240	1.846	1.620	1.319	0.756
805																																																																																					0.837	0.282	0.298	0.318	0.519	1.217	0.731	2.253	1.854	1.626	1.311	0.746
806																																																																																					0.828	0.279	0.293	0.314	0.511	1.205	0.721	2.265	1.861	1.631	1.303	0.736
807																																																																																					0.818	0.274	0.288	0.309	0.503	1.190	0.709	2.279	1.869	1.637	1.294	0.725
808																																																																																					0.809	0.271	0.285	0.306	0.495	1.178	0.700	2.287	1.874	1.641	1.285	0.715
809																																																																																					0.800	0.267	0.280	0.302	0.488	1.165	0.690	2.298	1.880	1.645	1.277	0.704
810																																																																																					0.791	0.263	0.276	0.299	0.481	1.152	0.680	2.309	1.885	1.648	1.268	0.695
811																																																																																					0.780	0.259	0.272	0.295	0.473	1.139	0.670	2.321	1.891	1.651	1.258	0.685
812																																																																																					0.772	0.256	0.268	0.291	0.466	1.126	0.660	2.330	1.895	1.653	1.249	0.675
813																																																																																					0.762	0.252	0.264	0.288	0.459	1.112	0.650	2.336	1.899	1.656	1.239	0.665
814																																																																																					0.753	0.249	0.261	0.284	0.452	1.099	0.640	2.349	1.903	1.657	1.229	0.655
815																																																																																					0.743	0.245	0.257	0.281	0.445	1.085	0.630	2.356	1.906	1.659	1.219	0.645
816																																																																																					0.734	0.242	0.253	0.277	0.438	1.072	0.620	2.361	1.909	1.659	1.208	0.635
817																																																																																					0.725	0.239	0.249	0.275	0.431	1.059	0.611	2.370	1.911	1.660	1.198	0.626
818																																																																																					0.714	0.235	0.245	0.269	0.424	1.043	0.600	2.376	1.912	1.659	1.185	0.615
819																																																																																					0.704	0.232	0.242	0.265	0.417	1.029	0.590	2.383	1.913	1.659	1.173	0.604
820																																																																																					0.691	0.228	0.237	0.260	0.409	1.012	0.578	2.390	1.913	1.656	1.159	0.592
821																																																																																					0.681	0.225	0.234	0.253	0.401	0.997	0.568	2.396	1.913	1.654	1.144	0.581
822																																																																																					0.674	0.222	0.231	0.252	0.396	0.986	0.560	2.400	1.913	1.653	1.136	0.574
823																																																																																					0.670	0.221	0.229	0.255	0.393	0.979	0.555	2.402	1.915	1.653	1.130	0.569
824																																																																																					0.667	0.219	0.227	0.256	0.390	0.972	0.551	2.404	1.915	1.653	1.125	0.565
825																																																																																					0.661	0.217	0.225	0.256	0.386	0.963	0.545	2.406	1.915	1.651	1.117	0.559
826																																																																																					0.651	0.214	0.222	0.254	0.379	0.949	0.535	2.408	1.913	1.647	1.104	0.549
827																																																																																					0.641	0.211	0.219	0.248	0.372	0.933	0.526	2.409	1.909	1.642	1.090	0.539
828																																																																																					0.633	0.209	0.216	0.246	0.367	0.921	0.518	2.411	1.906	1.638	1.078	0.530
829																																																																																					0.628	0.207	0.215	0.246	0.363	0.912	0.512	2.410	1.904	1.635	1.070	0.525
830																																																																																					0.622	0.206	0.213	0.246	0.359	0.902	0.506	2.411	1.902	1.631	1.061	0.518
831																																																																																					0.613	0.203	0.210	0.243	0.354	0.889	0.498	2.408	1.897	1.625	1.048	0.510
832																																																																																					0.600	0.201	0.206	0.235	0.346	0.871	0.486	2.407	1.887	1.614	1.029	0.498
833																																																																																					0.591	0.198	0.204	0.231	0.341	0.857	0.477	2.402	1.880	1.607	1.016	0.489
834																																																																																					0.585	0.196	0.202	0.231	0.337	0.847	0.472	2.401	1.877	1.602	1.006	0.483
835																																																																																					0.580	0.195	0.200	0.231	0.333	0.839	0.467	2.398	1.873	1.598	0.998	0.477
836																																																																																					0.575	0.193	0.198	0.231	0.330	0.830	0.461	2.394	1.869	1.592	0.990	0.472
837																																																																																					0.567	0.191	0.196	0.231	0.325	0.818	0.454	2.389	1.862	1.585	0.978	0.464
838																																																																																					0.558	0.188	0.193	0.226	0.319	0.805	0.446	2.382	1.851	1.574	0.963	0.455
839																																																																																					0.549	0.186	0.191	0.223	0.314	0.792	0.438	2.376	1.841	1.563	0.948	0.447
840																																																																																					0.542	0.184	0.188	0.220	0.310	0.780	0.431	2.370	1.833	1.555	0.937	0.440
841																																																																																					0.536	0.182	0.186	0.219	0.305	0.770	0.425	2.365	1.826	1.547	0.926	0.434
842																																																																																					0.530	0.181	0.185	0.218	0.302	0.761	0.420	2.357	1.819	1.538	0.917	0.428
843																																																																																					0.523	0.178	0.183	0.217	0.298	0.750	0.413	2.349	1.809	1.529	0.904	0.422
844																																																																																					0.516	0.177	0.180	0.214	0.293	0.739	0.407	2.338	1.799	1.519	0.892	0.414
845																																																																																					0.508	0.175	0.178	0.211	0.289	0.727	0.400	2.330	1.787	1.507	0.879	0.407
846																																																																																					0.502	0.173	0.176	0.209	0.285	0.716	0.394	2.318	1.776	1.496	0.867	0.401
847																																																																																					0.495	0.171	0.174	0.208	0.281	0.706	0.388	2.309	1.765	1.486	0.856	0.394
848																																																																																					0.489	0.170	0.172	0.206	0.277	0.697	0.382	2.300	1.754	1.475	0.845	0.389
849																																																																																					0.482	0.168	0.171	0.205	0.274	0.687	0.377	2.290	1.744	1.464	0.834	0.383
850																																																																																					0.477	0.167	0.169	0.202	0.270	0.677	0.372	2.279	1.732	1.452	0.823	0.378
851																																																																																					0.471	0.165	0.167	0.201	0.267	0.667	0.366	2.268	1.720	1.442	0.812	0.371
852																																																																																					0.465	0.164	0.166	0.200	0.263	0.657	0.360	2.255	1.709	1.429	0.801	0.366
853																																																																																					0.459	0.162	0.164	0.198	0.260	0.648	0.356	2.243	1.696	1.419	0.790	0.361
854																																																																																					0.452	0.160	0.162	0.195	0.256	0.637	0.349	2.227	1.682	1.404	0.778	0.354
855																																																																																					0.446	0.159	0.161	0.195	0.253	0.629	0.345	2.216	1.671	1.393	0.767	0.349
856																																																																																					0.441	0.157	0.159	0.194	0.249	0.619	0.340	2.203	1.656	1.380	0.756	0.344
857																																																																																					0.435	0.156	0.158	0.193	0.246	0.610	0.335	2.188	1.643	1.367	0.745	0.339
858																																																																																					0.429	0.154	0.156	0.190	0.243	0.601	0.330	2.175	1.631	1.354	0.734	0.334
859																																																																																					0.424	0.153	0.155	0.190	0.240	0.593	0.326	2.161	1.617	1.342	0.724	0.329
860																																																																																					0.419	0.152	0.154	0.188	0.238	0.585	0.322	2.147	1.603	1.329	0.715	0.325
861																																																																																					0.414	0.151	0.152	0.187	0.235	0.577	0.317	2.132	1.590	1.317	0.704	0.320
862																																																																																					0.409	0.150	0.151	0.186	0.232	0.568	0.313	2.116	1.575	1.303	0.695	0.316
863																																																																																					0.404	0.149	0.150	0.184	0.229	0.560	0.309	2.101	1.562	1.292	0.685	0.311
864																																																																																					0.399	0.147	0.149	0.184	0.227	0.552	0.305	2.085	1.548	1.278	0.675	0.307
865																																																																																					0.394	0.147	0.148	0.183	0.224	0.545	0.301	2.073	1.535	1.266	0.665	0.303
866																																																																																					0.389	0.145	0.147	0.182	0.222	0.536	0.297	2.053	1.520	1.251	0.656	0.299
867																																																																																					0.386	0.145	0.146	0.182	0.220	0.530	0.294	2.038	1.507	1.240	0.647	0.295
868																																																																																					0.380	0.144	0.145	0.180	0.217	0.521	0.289	2.019	1.490	1.225	0.636	0.291
869																																																																																					0.376	0.143	0.144	0.180	0.214	0.514	0.286	2.002	1.476	1.211	0.627	0.287
870																																																																																					0.372	0.142	0.143	0.179	0.212	0.508	0.283	1.987	1.461	1.199	0.618	0.283
871																																																																																					0.368	0.141	0.143	0.178	0.211	0.501	0.280	1.970	1.448	1.186	0.610	0.280
872																																																																																					0.364	0.141	0.142	0.178	0.208	0.494	0.276	1.954	1.434	1.173	0.602	0.277
873																																																																																					0.360	0.140	0.141	0.177	0.206	0.487	0.273	1.936	1.419	1.161	0.593	0.273
874																																																																																					0.356	0.139	0.141	0.176	0.204	0.481	0.270	1.919	1.404	1.147	0.584	0.270
875																																																																																					0.351	0.138	0.140	0.175	0.202	0.473	0.266	1.898	1.387	1.132	0.574	0.266
876																																																																																					0.346	0.137	0.139	0.174	0.200	0.467	0.263	1.880	1.371	1.118	0.565	0.263
877																																																																																					0.342	0.136	0.138	0.172	0.198	0.459	0.259	1.860	1.355	1.103	0.556	0.259
878																																																																																					0.336	0.135	0.136	0.169	0.195	0.451	0.255	1.837	1.334	1.085	0.545	0.255
879																																																																																					0.330	0.134	0.135	0.164	0.192	0.442	0.250	1.811	1.312	1.065	0.533	0.250
880																																																																																					0.325	0.133	0.133	0.161	0.190	0.435	0.246	1.791	1.295	1.051	0.524	0.246
881																																																																																					0.323	0.132	0.132	0.164	0.188	0.430	0.244	1.777	1.284	1.041	0.519	0.243
882																																																																																					0.321	0.131	0.132	0.168	0.187	0.426	0.243	1.768	1.278	1.035	0.515	0.241
883																																																																																					0.320	0.131	0.131	0.171	0.186	0.423	0.241	1.758	1.272	1.029	0.511	0.240
884																																																																																					0.318	0.130	0.130	0.175	0.185	0.419	0.239	1.746	1.263	1.022	0.507	0.238
885																																																																																					0.314	0.129	0.129	0.175	0.183	0.414	0.236	1.727	1.248	1.009	0.500	0.235
886																																																																																					0.309	0.128	0.128	0.171	0.181	0.406	0.233	1.703	1.227	0.990	0.489	0.231
887																																																																																					0.304	0.128	0.127	0.168	0.178	0.399	0.229	1.679	1.208	0.973	0.480	0.227
888																																																																																					0.300	0.127	0.126	0.166	0.177	0.393	0.226	1.659	1.191	0.960	0.472	0.224
889																																																																																					0.297	0.126	0.125	0.165	0.175	0.387	0.223	1.639	1.175	0.946	0.465	0.222
890																																																																																					0.293	0.125	0.124	0.163	0.173	0.381	0.221	1.618	1.159	0.932	0.457	0.219
891																																																																																					0.289	0.124	0.124	0.162	0.172	0.376	0.218	1.597	1.143	0.918	0.450	0.216
892																																																																																					0.285	0.124	0.123	0.159	0.170	0.369	0.215	1.575	1.124	0.902	0.441	0.213
893																																																																																					0.281	0.123	0.122	0.156	0.168	0.363	0.212	1.549	1.104	0.886	0.432	0.210
894																																																																																					0.278	0.122	0.121	0.155	0.167	0.358	0.210	1.533	1.091	0.874	0.426	0.207
895																																																																																					0.276	0.122	0.121	0.158	0.165	0.354	0.208	1.518	1.081	0.865	0.421	0.206
896																																																																																					0.274	0.121	0.120	0.159	0.164	0.351	0.207	1.506	1.073	0.858	0.418	0.204
897																																																																																					0.272	0.121	0.120	0.162	0.164	0.348	0.206	1.493	1.063	0.849	0.414	0.203
898																																																																																					0.270	0.121	0.120	0.163	0.162	0.344	0.204	1.476	1.051	0.839	0.408	0.201
899																																																																																					0.266	0.120	0.119	0.161	0.161	0.339	0.201	1.453	1.032	0.824	0.401	0.198
900																																																																																					0.263	0.120	0.118	0.159	0.159	0.333	0.199	1.432	1.016	0.810	0.394	0.196
901																																																																																					0.259	0.119	0.118	0.156	0.158	0.328	0.197	1.408	0.998	0.794	0.386	0.194
902																																																																																					0.256	0.119	0.117	0.151	0.156	0.323	0.194	1.385	0.979	0.779	0.379	0.191
903																																																																																					0.252	0.118	0.117	0.149	0.155	0.318	0.192	1.366	0.965	0.767	0.373	0.189
904																																																																																					0.251	0.118	0.117	0.152	0.154	0.315	0.191	1.351	0.955	0.759	0.369	0.188
905																																																																																					0.250	0.118	0.116	0.155	0.154	0.313	0.190	1.341	0.948	0.753	0.366	0.186
906																																																																																					0.249	0.118	0.116	0.158	0.153	0.310	0.189	1.331	0.941	0.747	0.363	0.185
907																																																																																					0.247	0.117	0.116	0.162	0.153	0.307	0.188	1.316	0.931	0.739	0.360	0.184
908																																																																																					0.244	0.117	0.116	0.160	0.151	0.303	0.186	1.295	0.915	0.725	0.354	0.182
909																																																																																					0.241	0.117	0.116	0.156	0.150	0.299	0.184	1.274	0.898	0.712	0.347	0.180
910																																																																																					0.238	0.117	0.115	0.154	0.150	0.294	0.183	1.252	0.883	0.699	0.341	0.179
911																																																																																					0.236	0.117	0.115	0.154	0.149	0.291	0.181	1.235	0.869	0.688	0.337	0.177
912																																																																																					0.234	0.117	0.115	0.152	0.148	0.287	0.180	1.214	0.854	0.675	0.331	0.176
913																																																																																					0.231	0.117	0.115	0.149	0.147	0.283	0.178	1.191	0.837	0.662	0.325	0.175
914																																																																																					0.228	0.117	0.115	0.145	0.146	0.280	0.176	1.172	0.823	0.650	0.319	0.173
915																																																																																					0.227	0.117	0.115	0.146	0.146	0.277	0.175	1.157	0.813	0.642	0.316	0.172
916																																																																																					0.227	0.117	0.115	0.150	0.146	0.275	0.175	1.148	0.807	0.637	0.314	0.172
917																																																																																					0.226	0.117	0.115	0.154	0.145	0.274	0.175	1.140	0.803	0.633	0.313	0.171
918																																																																																					0.226	0.117	0.116	0.159	0.145	0.272	0.175	1.130	0.797	0.628	0.311	0.170
919																																																																																					0.225	0.117	0.116	0.163	0.145	0.270	0.174	1.117	0.787	0.621	0.308	0.170
920																																																																																					0.223	0.118	0.116	0.161	0.145	0.268	0.173	1.099	0.774	0.610	0.304	0.169
921																																																																																					0.221	0.118	0.117	0.158	0.145	0.265	0.173	1.080	0.761	0.599	0.299	0.169
922																																																																																					0.220	0.119	0.117	0.158	0.145	0.262	0.172	1.064	0.750	0.590	0.296	0.168
923																																																																																					0.219	0.120	0.118	0.159	0.145	0.261	0.172	1.049	0.739	0.581	0.293	0.168
924																																																																																					0.218	0.121	0.119	0.159	0.146	0.259	0.172	1.035	0.730	0.574	0.290	0.168
925																																																																																					0.217	0.122	0.120	0.160	0.146	0.257	0.172	1.019	0.718	0.565	0.287	0.168
926																																																																																					0.217	0.123	0.121	0.160	0.147	0.256	0.172	1.005	0.709	0.557	0.284	0.168
927																																																																																					0.216	0.124	0.123	0.161	0.148	0.254	0.172	0.992	0.700	0.550	0.282	0.168
928																																																																																					0.216	0.126	0.124	0.162	0.148	0.253	0.172	0.977	0.690	0.542	0.279	0.169
929																																																																																					0.215	0.127	0.125	0.162	0.149	0.252	0.173	0.964	0.681	0.535	0.277	0.169
930																																																																																					0.215	0.129	0.127	0.163	0.150	0.251	0.173	0.952	0.673	0.529	0.276	0.170
931																																																																																					0.215	0.130	0.128	0.165	0.152	0.250	0.174	0.939	0.666	0.523	0.274	0.170
932																																																																																					0.215	0.132	0.130	0.167	0.153	0.250	0.175	0.928	0.658	0.516	0.272	0.171
933																																																																																					0.215	0.134	0.132	0.168	0.154	0.249	0.176	0.915	0.650	0.510	0.271	0.172
934																																																																																					0.216	0.136	0.134	0.168	0.156	0.249	0.177	0.901	0.641	0.503	0.269	0.173
935																																																																																					0.216	0.138	0.136	0.169	0.157	0.249	0.178	0.889	0.633	0.497	0.268	0.174
936																																																																																					0.217	0.140	0.138	0.170	0.159	0.248	0.179	0.878	0.627	0.492	0.267	0.176
937																																																																																					0.217	0.142	0.139	0.172	0.160	0.248	0.180	0.869	0.621	0.488	0.266	0.177
938																																																																																					0.218	0.144	0.141	0.176	0.162	0.249	0.181	0.860	0.616	0.483	0.266	0.178
939																																																																																					0.219	0.146	0.143	0.179	0.164	0.249	0.183	0.852	0.611	0.480	0.265	0.179
940																																																																																					0.220	0.149	0.145	0.182	0.166	0.250	0.184	0.843	0.606	0.476	0.265	0.181
941																																																																																					0.221	0.151	0.148	0.184	0.168	0.250	0.186	0.833	0.601	0.471	0.265	0.183
942																																																																																					0.223	0.154	0.151	0.186	0.170	0.251	0.188	0.824	0.595	0.468	0.265	0.185
943																																																																																					0.225	0.158	0.154	0.188	0.174	0.252	0.191	0.815	0.590	0.463	0.265	0.188
944																																																																																					0.226	0.161	0.157	0.191	0.176	0.254	0.193	0.806	0.585	0.460	0.265	0.190
945																																																																																					0.228	0.165	0.161	0.194	0.179	0.255	0.196	0.799	0.581	0.457	0.266	0.193
946																																																																																					0.230	0.168	0.164	0.197	0.182	0.257	0.198	0.792	0.578	0.455	0.267	0.196
947																																																																																					0.233	0.173	0.168	0.201	0.186	0.260	0.202	0.784	0.574	0.452	0.268	0.200
948																																																																																					0.236	0.178	0.173	0.205	0.191	0.263	0.205	0.777	0.571	0.450	0.270	0.204
949																																																																																					0.240	0.183	0.178	0.209	0.195	0.266	0.210	0.772	0.569	0.449	0.272	0.208
950																																																																																					0.243	0.188	0.183	0.214	0.200	0.269	0.214	0.767	0.568	0.448	0.275	0.212
951																																																																																					0.248	0.193	0.188	0.220	0.204	0.273	0.218	0.762	0.567	0.448	0.277	0.216
952																																																																																					0.251	0.198	0.192	0.226	0.209	0.276	0.222	0.759	0.566	0.448	0.280	0.221
953																																																																																					0.255	0.203	0.197	0.231	0.214	0.280	0.227	0.756	0.566	0.448	0.283	0.225
954																																																																																					0.260	0.209	0.203	0.237	0.219	0.284	0.232	0.751	0.565	0.447	0.286	0.231
955																																																																																					0.265	0.216	0.210	0.242	0.226	0.289	0.238	0.747	0.564	0.447	0.290	0.237
956																																																																																					0.268	0.222	0.215	0.246	0.230	0.292	0.242	0.743	0.563	0.447	0.292	0.241
957																																																																																					0.272	0.227	0.220	0.250	0.235	0.296	0.246	0.738	0.562	0.446	0.294	0.246
958																																																																																					0.275	0.231	0.224	0.253	0.239	0.299	0.249	0.733	0.560	0.445	0.296	0.249
959																																																																																					0.278	0.235	0.228	0.257	0.242	0.301	0.253	0.727	0.557	0.443	0.298	0.253
960																																																																																					0.279	0.238	0.231	0.259	0.245	0.302	0.255	0.721	0.554	0.441	0.298	0.255
961																																																																																					0.280	0.240	0.233	0.261	0.247	0.303	0.257	0.715	0.551	0.439	0.299	0.257
962																																																																																					0.281	0.242	0.235	0.262	0.249	0.304	0.258	0.708	0.547	0.435	0.299	0.259
963																																																																																					0.282	0.244	0.236	0.264	0.250	0.304	0.259	0.701	0.543	0.433	0.299	0.260
964																																																																																					0.282	0.245	0.237	0.264	0.251	0.304	0.260	0.694	0.539	0.429	0.298	0.260
965																																																																																					0.282	0.246	0.238	0.264	0.252	0.304	0.260	0.687	0.534	0.426	0.297	0.261
966																																																																																					0.282	0.247	0.239	0.264	0.252	0.304	0.261	0.679	0.530	0.422	0.296	0.261
967																																																																																					0.281	0.247	0.240	0.264	0.252	0.303	0.261	0.671	0.525	0.419	0.295	0.261
968																																																																																					0.281	0.248	0.240	0.265	0.253	0.303	0.261	0.665	0.521	0.416	0.294	0.261
969																																																																																					0.281	0.248	0.241	0.266	0.253	0.302	0.261	0.658	0.517	0.413	0.294	0.261
970																																																																																					0.280	0.248	0.241	0.266	0.253	0.301	0.261	0.652	0.513	0.409	0.293	0.261
971																																																																																					0.280	0.249	0.241	0.267	0.253	0.301	0.261	0.645	0.509	0.406	0.292	0.261
972																																																																																					0.279	0.249	0.241	0.268	0.253	0.300	0.260	0.638	0.504	0.403	0.290	0.261
973																																																																																					0.279	0.249	0.241	0.267	0.253	0.299	0.260	0.630	0.499	0.399	0.289	0.261
974																																																																																					0.278	0.248	0.241	0.267	0.252	0.297	0.260	0.622	0.494	0.395	0.287	0.260
975																																																																																					0.276	0.248	0.241	0.265	0.252	0.296	0.259	0.614	0.488	0.391	0.286	0.260
976																																																																																					0.275	0.248	0.241	0.261	0.251	0.295	0.258	0.605	0.482	0.386	0.283	0.259
977																																																																																					0.273	0.247	0.240	0.258	0.251	0.293	0.257	0.598	0.477	0.382	0.281	0.258
978																																																																																					0.272	0.247	0.239	0.257	0.250	0.292	0.256	0.592	0.473	0.379	0.280	0.257
979																																																																																					0.272	0.247	0.239	0.260	0.249	0.291	0.256	0.588	0.471	0.377	0.280	0.257
980																																																																																					0.272	0.246	0.238	0.266	0.249	0.290	0.256	0.585	0.470	0.376	0.279	0.256
981																																																																																					0.272	0.246	0.238	0.271	0.248	0.290	0.256	0.582	0.468	0.375	0.279	0.255
982																																																																																					0.271	0.245	0.237	0.276	0.247	0.288	0.255	0.576	0.465	0.372	0.278	0.254
983																																																																																					0.269	0.244	0.236	0.274	0.246	0.287	0.253	0.569	0.460	0.368	0.276	0.253
984																																																																																					0.266	0.242	0.235	0.267	0.245	0.284	0.251	0.558	0.452	0.362	0.272	0.251
985																																																																																					0.263	0.240	0.233	0.261	0.243	0.281	0.249	0.549	0.444	0.356	0.269	0.249
986																																																																																					0.261	0.239	0.231	0.258	0.241	0.279	0.247	0.541	0.439	0.352	0.267	0.247
987																																																																																					0.258	0.237	0.230	0.255	0.239	0.276	0.245	0.533	0.433	0.347	0.264	0.245
988																																																																																					0.256	0.234	0.228	0.251	0.237	0.273	0.243	0.524	0.426	0.342	0.260	0.243
989																																																																																					0.253	0.232	0.226	0.246	0.234	0.270	0.240	0.516	0.420	0.337	0.257	0.241
990																																																																																					0.250	0.230	0.224	0.240	0.233	0.268	0.238	0.509	0.415	0.333	0.255	0.239
991																																																																																					0.248	0.229	0.223	0.239	0.231	0.266	0.237	0.504	0.411	0.330	0.253	0.237
992																																																																																					0.248	0.228	0.221	0.242	0.230	0.265	0.236	0.500	0.409	0.328	0.252	0.236
993																																																																																					0.247	0.227	0.220	0.247	0.229	0.264	0.235	0.498	0.407	0.327	0.251	0.235
994																																																																																					0.247	0.227	0.220	0.253	0.229	0.263	0.235	0.495	0.406	0.326	0.251	0.234
995																																																																																					0.246	0.225	0.218	0.258	0.227	0.261	0.234	0.489	0.402	0.323	0.249	0.233
996																																																																																					0.243	0.223	0.216	0.256	0.225	0.258	0.231	0.483	0.398	0.319	0.247	0.231
997																																																																																					0.240	0.220	0.213	0.248	0.222	0.255	0.228	0.474	0.391	0.313	0.243	0.228
998																																																																																					0.237	0.218	0.211	0.243	0.220	0.252	0.226	0.466	0.384	0.309	0.240	0.225
999																																																																																					0.234	0.215	0.209	0.239	0.217	0.249	0.223	0.459	0.379	0.305	0.237	0.223

结果
	1	2	3	4	5	6	7	8	9	10	11	12
A	?????	?????	?????	?????	?????	?????	?????	?????	?????	?????	?????	?????	Mean Max OD [Spectrum]
B	?????	?????	?????	?????	?????	?????	?????	?????	?????	?????	?????	?????	Mean Max OD [Spectrum]
C	?????	?????	?????	?????	?????	?????	?????	?????	?????	?????	?????	?????	Mean Max OD [Spectrum]
D	?????	?????	?????	?????	?????	?????	?????	?????	?????	?????	?????	?????	Mean Max OD [Spectrum]
E	?????	?????	?????	?????	?????	?????	?????	?????	?????	?????	?????	?????	Mean Max OD [Spectrum]
F	?????	?????	?????	?????	?????	?????	?????	?????	?????	?????	?????	?????	Mean Max OD [Spectrum]
G	?????	?????	?????	?????	?????	?????	?????	?????	?????	?????	?????	?????	Mean Max OD [Spectrum]
H	1.350	1.445	1.389	1.307	1.492	1.738	1.539	2.411	1.915	1.660	1.430	1.319	Mean Max OD [Spectrum]

