

软件版本	3.11.19



实验文件路径:	
方案文件路径:	



板编号	板 1
日期	2023/4/1
时间	10:05:05
检测仪类型:	Epoch 2
检测仪序列号:	2205170B
检测类型	检测仪

程序详细信息

板类型	96 WELL PLATE
完成后弹出板	
检测	吸收光 光谱
	A1..A12
	开始: 400 nm,  停止: 999 nm,  步骤: 1 nm
	检测前校准
	检测速度: 正常,  延迟: 100 msec,  测量值/数据点: 8

Spectrum

波长	A1	A2	A3	A4	A5	A6	A7	A8	A9	A10	A11	A12	B1	B2	B3	B4	B5	B6	B7	B8	B9	B10	B11	B12	C1	C2	C3	C4	C5	C6	C7	C8	C9	C10	C11	C12	D1	D2	D3	D4	D5	D6	D7	D8	D9	D10	D11	D12	E1	E2	E3	E4	E5	E6	E7	E8	E9	E10	E11	E12	F1	F2	F3	F4	F5	F6	F7	F8	F9	F10	F11	F12	G1	G2	G3	G4	G5	G6	G7	G8	G9	G10	G11	G12	H1	H2	H3	H4	H5	H6	H7	H8	H9	H10	H11	H12
400	0.557	0.570	0.558	0.507	0.585	0.530	0.578	0.581	0.601	0.626	0.559	0.552																																																																																				
401	0.556	0.569	0.556	0.506	0.584	0.529	0.577	0.580	0.600	0.625	0.558	0.551																																																																																				
402	0.554	0.568	0.555	0.505	0.582	0.527	0.575	0.578	0.598	0.623	0.556	0.549																																																																																				
403	0.553	0.566	0.553	0.503	0.580	0.526	0.574	0.577	0.597	0.621	0.555	0.548																																																																																				
404	0.551	0.565	0.552	0.502	0.579	0.525	0.572	0.575	0.595	0.620	0.553	0.546																																																																																				
405	0.550	0.563	0.551	0.501	0.578	0.524	0.571	0.574	0.594	0.618	0.552	0.545																																																																																				
406	0.549	0.562	0.549	0.500	0.576	0.522	0.570	0.573	0.593	0.617	0.551	0.544																																																																																				
407	0.548	0.561	0.548	0.499	0.575	0.521	0.568	0.571	0.591	0.615	0.550	0.542																																																																																				
408	0.546	0.559	0.547	0.497	0.573	0.520	0.567	0.570	0.590	0.614	0.548	0.541																																																																																				
409	0.545	0.558	0.546	0.496	0.572	0.518	0.566	0.569	0.589	0.612	0.547	0.540																																																																																				
410	0.544	0.557	0.544	0.495	0.571	0.517	0.564	0.567	0.587	0.611	0.546	0.539																																																																																				
411	0.543	0.556	0.543	0.494	0.569	0.516	0.563	0.566	0.586	0.610	0.544	0.537																																																																																				
412	0.542	0.554	0.542	0.493	0.568	0.515	0.562	0.565	0.585	0.608	0.543	0.536																																																																																				
413	0.540	0.553	0.541	0.492	0.567	0.514	0.560	0.563	0.583	0.607	0.542	0.535																																																																																				
414	0.539	0.552	0.540	0.490	0.565	0.512	0.559	0.562	0.582	0.605	0.541	0.534																																																																																				
415	0.538	0.551	0.538	0.489	0.564	0.511	0.558	0.560	0.581	0.604	0.540	0.532																																																																																				
416	0.537	0.550	0.537	0.488	0.563	0.510	0.557	0.559	0.580	0.603	0.539	0.532																																																																																				
417	0.536	0.548	0.536	0.487	0.562	0.509	0.555	0.558	0.578	0.601	0.537	0.530																																																																																				
418	0.535	0.547	0.535	0.486	0.561	0.508	0.554	0.557	0.577	0.600	0.536	0.529																																																																																				
419	0.534	0.546	0.534	0.485	0.559	0.507	0.553	0.556	0.576	0.599	0.535	0.528																																																																																				
420	0.532	0.545	0.533	0.484	0.558	0.506	0.552	0.554	0.575	0.597	0.534	0.527																																																																																				
421	0.531	0.544	0.532	0.483	0.557	0.505	0.551	0.553	0.574	0.596	0.533	0.526																																																																																				
422	0.531	0.543	0.531	0.482	0.556	0.504	0.550	0.552	0.573	0.595	0.532	0.525																																																																																				
423	0.530	0.542	0.530	0.481	0.555	0.503	0.549	0.552	0.572	0.594	0.531	0.524																																																																																				
424	0.529	0.541	0.529	0.481	0.554	0.502	0.548	0.551	0.571	0.593	0.530	0.523																																																																																				
425	0.528	0.540	0.528	0.480	0.553	0.501	0.547	0.550	0.570	0.592	0.529	0.522																																																																																				
426	0.527	0.539	0.528	0.479	0.552	0.500	0.546	0.549	0.569	0.591	0.529	0.521																																																																																				
427	0.526	0.538	0.527	0.478	0.551	0.500	0.545	0.548	0.568	0.590	0.528	0.521																																																																																				
428	0.525	0.537	0.526	0.477	0.550	0.499	0.544	0.547	0.567	0.589	0.527	0.520																																																																																				
429	0.524	0.537	0.525	0.476	0.549	0.498	0.543	0.546	0.566	0.588	0.526	0.519																																																																																				
430	0.523	0.536	0.524	0.475	0.548	0.497	0.542	0.544	0.565	0.586	0.525	0.518																																																																																				
431	0.523	0.535	0.523	0.474	0.547	0.496	0.541	0.544	0.564	0.586	0.524	0.517																																																																																				
432	0.522	0.534	0.522	0.474	0.546	0.495	0.540	0.543	0.563	0.584	0.523	0.516																																																																																				
433	0.521	0.533	0.521	0.473	0.545	0.494	0.539	0.542	0.562	0.584	0.522	0.515																																																																																				
434	0.520	0.532	0.520	0.472	0.545	0.493	0.538	0.541	0.561	0.582	0.521	0.514																																																																																				
435	0.519	0.531	0.519	0.471	0.544	0.493	0.538	0.540	0.560	0.582	0.520	0.513																																																																																				
436	0.519	0.530	0.518	0.470	0.543	0.492	0.537	0.539	0.559	0.581	0.520	0.513																																																																																				
437	0.518	0.530	0.517	0.469	0.542	0.491	0.536	0.538	0.558	0.580	0.519	0.512																																																																																				
438	0.517	0.529	0.517	0.469	0.541	0.490	0.535	0.537	0.557	0.579	0.518	0.511																																																																																				
439	0.516	0.528	0.516	0.468	0.540	0.489	0.534	0.536	0.556	0.578	0.517	0.510																																																																																				
440	0.515	0.527	0.515	0.467	0.539	0.489	0.533	0.535	0.556	0.577	0.516	0.509																																																																																				
441	0.515	0.527	0.514	0.467	0.539	0.488	0.533	0.535	0.555	0.576	0.516	0.509																																																																																				
442	0.514	0.526	0.513	0.466	0.538	0.488	0.532	0.534	0.554	0.575	0.515	0.508																																																																																				
443	0.514	0.525	0.513	0.466	0.537	0.487	0.531	0.533	0.554	0.575	0.514	0.507																																																																																				
444	0.513	0.525	0.512	0.465	0.536	0.486	0.530	0.533	0.553	0.574	0.513	0.507																																																																																				
445	0.512	0.524	0.511	0.464	0.536	0.485	0.530	0.532	0.552	0.573	0.513	0.506																																																																																				
446	0.512	0.524	0.511	0.464	0.535	0.485	0.529	0.531	0.551	0.572	0.512	0.505																																																																																				
447	0.511	0.523	0.510	0.463	0.534	0.484	0.529	0.531	0.551	0.571	0.512	0.505																																																																																				
448	0.511	0.523	0.510	0.463	0.534	0.484	0.528	0.530	0.550	0.571	0.511	0.504																																																																																				
449	0.510	0.522	0.509	0.462	0.533	0.483	0.527	0.529	0.550	0.570	0.511	0.504																																																																																				
450	0.510	0.522	0.509	0.462	0.533	0.483	0.527	0.529	0.549	0.570	0.510	0.503																																																																																				
451	0.510	0.521	0.508	0.461	0.532	0.482	0.526	0.528	0.548	0.569	0.510	0.503																																																																																				
452	0.509	0.521	0.508	0.461	0.532	0.482	0.526	0.528	0.548	0.568	0.509	0.502																																																																																				
453	0.509	0.521	0.507	0.460	0.531	0.482	0.526	0.527	0.548	0.568	0.509	0.502																																																																																				
454	0.509	0.520	0.507	0.460	0.531	0.481	0.525	0.527	0.547	0.568	0.508	0.502																																																																																				
455	0.508	0.520	0.506	0.460	0.530	0.481	0.525	0.527	0.547	0.567	0.508	0.501																																																																																				
456	0.508	0.520	0.506	0.459	0.530	0.481	0.525	0.526	0.547	0.567	0.508	0.501																																																																																				
457	0.508	0.520	0.506	0.459	0.530	0.480	0.524	0.526	0.546	0.566	0.507	0.500																																																																																				
458	0.508	0.520	0.506	0.459	0.529	0.480	0.524	0.526	0.546	0.566	0.507	0.500																																																																																				
459	0.508	0.520	0.506	0.459	0.529	0.480	0.524	0.525	0.546	0.566	0.507	0.500																																																																																				
460	0.508	0.520	0.506	0.459	0.529	0.480	0.524	0.525	0.546	0.566	0.507	0.500																																																																																				
461	0.508	0.520	0.505	0.459	0.529	0.480	0.524	0.525	0.546	0.566	0.507	0.500																																																																																				
462	0.508	0.520	0.505	0.459	0.529	0.480	0.524	0.526	0.546	0.566	0.507	0.500																																																																																				
463	0.509	0.520	0.505	0.459	0.529	0.480	0.524	0.526	0.546	0.566	0.507	0.500																																																																																				
464	0.509	0.521	0.506	0.459	0.529	0.480	0.525	0.526	0.546	0.566	0.507	0.500																																																																																				
465	0.509	0.521	0.506	0.459	0.530	0.480	0.525	0.526	0.546	0.566	0.507	0.500																																																																																				
466	0.510	0.522	0.506	0.459	0.530	0.481	0.525	0.526	0.547	0.567	0.508	0.501																																																																																				
467	0.510	0.522	0.506	0.459	0.530	0.481	0.526	0.526	0.547	0.567	0.508	0.501																																																																																				
468	0.511	0.523	0.507	0.460	0.531	0.482	0.526	0.527	0.548	0.568	0.508	0.501																																																																																				
469	0.512	0.524	0.507	0.460	0.531	0.482	0.527	0.527	0.548	0.568	0.509	0.502																																																																																				
470	0.513	0.525	0.508	0.461	0.532	0.483	0.528	0.528	0.549	0.569	0.510	0.503																																																																																				
471	0.513	0.525	0.509	0.461	0.533	0.483	0.528	0.529	0.550	0.570	0.510	0.503																																																																																				
472	0.514	0.526	0.509	0.462	0.534	0.484	0.529	0.530	0.551	0.571	0.511	0.504																																																																																				
473	0.516	0.528	0.510	0.463	0.535	0.485	0.530	0.531	0.552	0.572	0.512	0.505																																																																																				
474	0.517	0.529	0.511	0.464	0.536	0.486	0.531	0.532	0.553	0.573	0.513	0.506																																																																																				
475	0.518	0.531	0.513	0.465	0.537	0.487	0.533	0.533	0.554	0.574	0.515	0.508																																																																																				
476	0.520	0.532	0.514	0.466	0.539	0.489	0.534	0.535	0.556	0.576	0.516	0.509																																																																																				
477	0.522	0.534	0.516	0.468	0.540	0.490	0.536	0.536	0.558	0.578	0.518	0.511																																																																																				
478	0.524	0.537	0.517	0.469	0.542	0.492	0.538	0.538	0.560	0.580	0.519	0.512																																																																																				
479	0.527	0.539	0.519	0.471	0.544	0.494	0.540	0.540	0.562	0.582	0.522	0.514																																																																																				
480	0.529	0.542	0.521	0.473	0.547	0.496	0.543	0.543	0.564	0.584	0.524	0.517																																																																																				
481	0.532	0.545	0.524	0.476	0.550	0.499	0.546	0.546	0.568	0.588	0.527	0.519																																																																																				
482	0.536	0.549	0.527	0.478	0.553	0.502	0.549	0.549	0.571	0.591	0.530	0.522																																																																																				
483	0.538	0.552	0.529	0.480	0.555	0.504	0.552	0.551	0.574	0.594	0.532	0.525																																																																																				
484	0.541	0.554	0.532	0.483	0.558	0.506	0.554	0.554	0.576	0.597	0.535	0.527																																																																																				
485	0.544	0.557	0.534	0.485	0.560	0.509	0.557	0.557	0.579	0.599	0.537	0.530																																																																																				
486	0.548	0.561	0.537	0.488	0.564	0.512	0.560	0.560	0.583	0.603	0.540	0.533																																																																																				
487	0.553	0.567	0.542	0.492	0.568	0.516	0.565	0.565	0.587	0.608	0.545	0.537																																																																																				
488	0.557	0.571	0.545	0.495	0.572	0.520	0.569	0.569	0.592	0.612	0.549	0.541																																																																																				
489	0.561	0.575	0.549	0.498	0.576	0.523	0.573	0.572	0.596	0.616	0.552	0.545																																																																																				
490	0.567	0.581	0.554	0.503	0.581	0.528	0.578	0.578	0.601	0.622	0.557	0.550																																																																																				
491	0.573	0.588	0.559	0.508	0.587	0.533	0.584	0.583	0.607	0.628	0.563	0.555																																																																																				
492	0.578	0.593	0.563	0.511	0.592	0.537	0.589	0.588	0.612	0.633	0.567	0.559																																																																																				
493	0.584	0.598	0.568	0.516	0.596	0.542	0.594	0.593	0.617	0.638	0.572	0.564																																																																																				
494	0.590	0.605	0.573	0.520	0.602	0.547	0.600	0.598	0.623	0.644	0.577	0.569																																																																																				
495	0.598	0.613	0.580	0.527	0.609	0.554	0.607	0.606	0.631	0.652	0.584	0.576																																																																																				
496	0.606	0.621	0.586	0.533	0.617	0.560	0.615	0.613	0.638	0.660	0.591	0.583																																																																																				
497	0.614	0.630	0.593	0.539	0.624	0.567	0.623	0.620	0.646	0.668	0.598	0.590																																																																																				
498	0.620	0.636	0.598	0.544	0.629	0.572	0.628	0.625	0.651	0.674	0.603	0.595																																																																																				
499	0.627	0.644	0.603	0.549	0.635	0.577	0.634	0.631	0.658	0.680	0.609	0.600																																																																																				
500	0.634	0.651	0.609	0.554	0.641	0.583	0.641	0.638	0.665	0.687	0.615	0.606																																																																																				
501	0.642	0.660	0.615	0.560	0.648	0.589	0.648	0.645	0.672	0.694	0.621	0.613																																																																																				
502	0.650	0.668	0.622	0.566	0.655	0.596	0.656	0.652	0.679	0.702	0.628	0.619																																																																																				
503	0.657	0.676	0.627	0.571	0.661	0.602	0.662	0.658	0.686	0.708	0.634	0.625																																																																																				
504	0.666	0.685	0.634	0.577	0.668	0.608	0.670	0.665	0.693	0.716	0.641	0.632																																																																																				
505	0.673	0.693	0.639	0.582	0.674	0.613	0.677	0.671	0.700	0.722	0.646	0.637																																																																																				
506	0.681	0.701	0.644	0.588	0.680	0.619	0.684	0.677	0.706	0.729	0.652	0.643																																																																																				
507	0.688	0.709	0.650	0.592	0.686	0.624	0.690	0.683	0.712	0.735	0.657	0.648																																																																																				
508	0.695	0.716	0.654	0.597	0.691	0.629	0.696	0.688	0.718	0.741	0.663	0.653																																																																																				
509	0.702	0.724	0.659	0.601	0.696	0.634	0.702	0.694	0.724	0.746	0.667	0.658																																																																																				
510	0.708	0.731	0.663	0.605	0.701	0.639	0.708	0.699	0.729	0.752	0.672	0.662																																																																																				
511	0.714	0.737	0.666	0.609	0.705	0.643	0.713	0.703	0.733	0.756	0.676	0.666																																																																																				
512	0.720	0.743	0.670	0.612	0.709	0.646	0.718	0.707	0.738	0.760	0.679	0.670																																																																																				
513	0.724	0.748	0.672	0.614	0.712	0.649	0.721	0.710	0.741	0.763	0.682	0.672																																																																																				
514	0.728	0.753	0.674	0.616	0.714	0.651	0.725	0.712	0.744	0.766	0.684	0.674																																																																																				
515	0.732	0.757	0.675	0.618	0.716	0.653	0.728	0.714	0.746	0.768	0.686	0.676																																																																																				
516	0.735	0.761	0.676	0.619	0.718	0.655	0.730	0.716	0.748	0.769	0.687	0.677																																																																																				
517	0.738	0.764	0.677	0.620	0.719	0.656	0.732	0.717	0.749	0.770	0.688	0.678																																																																																				
518	0.739	0.767	0.677	0.620	0.719	0.656	0.733	0.717	0.749	0.771	0.688	0.678																																																																																				
519	0.741	0.769	0.676	0.620	0.719	0.656	0.734	0.717	0.750	0.771	0.688	0.678																																																																																				
520	0.742	0.770	0.675	0.620	0.719	0.656	0.735	0.717	0.749	0.770	0.688	0.677																																																																																				
521	0.743	0.771	0.674	0.619	0.718	0.655	0.734	0.716	0.749	0.769	0.687	0.676																																																																																				
522	0.742	0.771	0.672	0.618	0.716	0.654	0.734	0.715	0.747	0.768	0.685	0.675																																																																																				
523	0.742	0.771	0.670	0.616	0.714	0.652	0.733	0.713	0.745	0.765	0.683	0.673																																																																																				
524	0.741	0.771	0.667	0.614	0.712	0.650	0.731	0.710	0.743	0.762	0.680	0.670																																																																																				
525	0.739	0.770	0.664	0.611	0.709	0.648	0.729	0.707	0.740	0.759	0.678	0.667																																																																																				
526	0.737	0.768	0.660	0.608	0.705	0.645	0.726	0.704	0.736	0.756	0.674	0.664																																																																																				
527	0.735	0.766	0.656	0.605	0.702	0.642	0.723	0.700	0.733	0.751	0.670	0.660																																																																																				
528	0.733	0.764	0.653	0.602	0.699	0.639	0.721	0.697	0.730	0.748	0.668	0.657																																																																																				
529	0.731	0.762	0.650	0.599	0.695	0.636	0.718	0.694	0.726	0.745	0.664	0.654																																																																																				
530	0.728	0.759	0.646	0.596	0.692	0.633	0.715	0.691	0.723	0.741	0.661	0.651																																																																																				
531	0.725	0.756	0.642	0.593	0.687	0.629	0.711	0.686	0.718	0.736	0.657	0.646																																																																																				
532	0.721	0.752	0.636	0.588	0.682	0.624	0.705	0.680	0.712	0.730	0.651	0.641																																																																																				
533	0.716	0.749	0.631	0.583	0.676	0.619	0.701	0.675	0.707	0.724	0.646	0.636																																																																																				
534	0.713	0.745	0.626	0.579	0.672	0.615	0.696	0.670	0.702	0.719	0.641	0.631																																																																																				
535	0.708	0.741	0.621	0.574	0.666	0.610	0.691	0.665	0.696	0.713	0.636	0.626																																																																																				
536	0.704	0.737	0.615	0.569	0.661	0.605	0.685	0.659	0.690	0.707	0.630	0.620																																																																																				
537	0.699	0.732	0.610	0.564	0.655	0.600	0.680	0.653	0.684	0.700	0.625	0.614																																																																																				
538	0.695	0.727	0.604	0.559	0.648	0.594	0.674	0.647	0.678	0.693	0.618	0.609																																																																																				
539	0.690	0.723	0.599	0.554	0.643	0.589	0.669	0.641	0.672	0.687	0.613	0.603																																																																																				
540	0.685	0.718	0.593	0.548	0.636	0.583	0.662	0.635	0.665	0.680	0.606	0.597																																																																																				
541	0.680	0.713	0.588	0.543	0.631	0.578	0.657	0.629	0.659	0.674	0.601	0.591																																																																																				
542	0.677	0.709	0.583	0.539	0.625	0.573	0.651	0.624	0.653	0.668	0.596	0.586																																																																																				
543	0.673	0.706	0.578	0.535	0.620	0.568	0.646	0.619	0.648	0.662	0.591	0.581																																																																																				
544	0.668	0.701	0.573	0.530	0.614	0.563	0.640	0.613	0.642	0.656	0.585	0.576																																																																																				
545	0.663	0.696	0.567	0.524	0.608	0.557	0.634	0.607	0.635	0.649	0.579	0.570																																																																																				
546	0.658	0.691	0.562	0.519	0.602	0.551	0.628	0.600	0.629	0.642	0.573	0.564																																																																																				
547	0.654	0.687	0.557	0.514	0.596	0.546	0.622	0.595	0.623	0.636	0.567	0.558																																																																																				
548	0.650	0.683	0.552	0.509	0.590	0.541	0.617	0.589	0.617	0.630	0.562	0.553																																																																																				
549	0.646	0.679	0.547	0.504	0.585	0.536	0.611	0.584	0.612	0.624	0.557	0.548																																																																																				
550	0.642	0.675	0.543	0.499	0.579	0.530	0.605	0.578	0.606	0.618	0.551	0.543																																																																																				
551	0.638	0.671	0.538	0.495	0.574	0.526	0.600	0.573	0.600	0.612	0.546	0.538																																																																																				
552	0.634	0.667	0.534	0.490	0.569	0.520	0.594	0.567	0.595	0.606	0.541	0.533																																																																																				
553	0.631	0.664	0.529	0.486	0.564	0.516	0.589	0.562	0.590	0.601	0.536	0.528																																																																																				
554	0.628	0.660	0.526	0.482	0.559	0.511	0.584	0.557	0.584	0.595	0.532	0.523																																																																																				
555	0.625	0.658	0.522	0.478	0.555	0.507	0.580	0.553	0.580	0.591	0.528	0.519																																																																																				
556	0.622	0.655	0.519	0.474	0.550	0.503	0.575	0.548	0.575	0.586	0.523	0.515																																																																																				
557	0.619	0.652	0.515	0.471	0.546	0.499	0.571	0.544	0.571	0.581	0.519	0.511																																																																																				
558	0.617	0.650	0.512	0.467	0.541	0.495	0.566	0.540	0.566	0.576	0.515	0.507																																																																																				
559	0.614	0.647	0.509	0.464	0.537	0.491	0.562	0.536	0.562	0.572	0.511	0.503																																																																																				
560	0.612	0.645	0.507	0.461	0.534	0.487	0.558	0.532	0.558	0.568	0.508	0.500																																																																																				
561	0.611	0.644	0.504	0.458	0.530	0.484	0.554	0.529	0.555	0.564	0.504	0.497																																																																																				
562	0.610	0.642	0.503	0.455	0.528	0.481	0.552	0.526	0.552	0.561	0.502	0.494																																																																																				
563	0.609	0.641	0.501	0.454	0.526	0.479	0.550	0.524	0.550	0.559	0.500	0.492																																																																																				
564	0.608	0.641	0.500	0.451	0.523	0.477	0.547	0.522	0.548	0.556	0.498	0.490																																																																																				
565	0.608	0.640	0.499	0.449	0.521	0.475	0.544	0.519	0.545	0.553	0.495	0.488																																																																																				
566	0.607	0.640	0.498	0.448	0.519	0.473	0.543	0.518	0.543	0.551	0.494	0.486																																																																																				
567	0.607	0.640	0.497	0.447	0.518	0.471	0.541	0.516	0.542	0.550	0.492	0.485																																																																																				
568	0.608	0.640	0.497	0.446	0.516	0.470	0.540	0.515	0.541	0.548	0.491	0.484																																																																																				
569	0.608	0.641	0.497	0.445	0.516	0.469	0.539	0.514	0.540	0.547	0.490	0.483																																																																																				
570	0.609	0.641	0.497	0.444	0.515	0.468	0.538	0.513	0.539	0.546	0.490	0.482																																																																																				
571	0.610	0.643	0.498	0.444	0.515	0.468	0.537	0.513	0.539	0.546	0.489	0.482																																																																																				
572	0.612	0.644	0.499	0.444	0.515	0.468	0.537	0.513	0.539	0.546	0.489	0.482																																																																																				
573	0.614	0.646	0.500	0.444	0.515	0.468	0.538	0.514	0.540	0.546	0.490	0.482																																																																																				
574	0.616	0.647	0.502	0.445	0.516	0.468	0.538	0.515	0.540	0.547	0.490	0.483																																																																																				
575	0.618	0.650	0.503	0.445	0.517	0.469	0.539	0.515	0.541	0.547	0.491	0.484																																																																																				
576	0.620	0.652	0.505	0.447	0.518	0.469	0.540	0.516	0.543	0.549	0.492	0.485																																																																																				
577	0.623	0.654	0.507	0.448	0.519	0.471	0.541	0.518	0.544	0.550	0.494	0.486																																																																																				
578	0.626	0.657	0.510	0.449	0.521	0.472	0.543	0.520	0.546	0.552	0.495	0.488																																																																																				
579	0.629	0.661	0.513	0.451	0.523	0.474	0.545	0.522	0.549	0.554	0.498	0.490																																																																																				
580	0.633	0.664	0.517	0.454	0.526	0.476	0.547	0.525	0.552	0.557	0.500	0.492																																																																																				
581	0.637	0.668	0.520	0.456	0.528	0.478	0.550	0.528	0.555	0.560	0.503	0.495																																																																																				
582	0.641	0.672	0.524	0.458	0.531	0.481	0.553	0.531	0.558	0.563	0.506	0.498																																																																																				
583	0.646	0.676	0.528	0.462	0.535	0.484	0.556	0.534	0.562	0.567	0.509	0.501																																																																																				
584	0.651	0.680	0.533	0.465	0.539	0.487	0.560	0.538	0.566	0.571	0.513	0.505																																																																																				
585	0.656	0.685	0.538	0.469	0.543	0.491	0.564	0.543	0.571	0.575	0.517	0.509																																																																																				
586	0.661	0.690	0.543	0.472	0.548	0.495	0.569	0.547	0.576	0.580	0.521	0.513																																																																																				
587	0.667	0.695	0.549	0.477	0.553	0.499	0.573	0.553	0.581	0.585	0.526	0.518																																																																																				
588	0.672	0.700	0.554	0.481	0.558	0.503	0.578	0.557	0.586	0.590	0.531	0.522																																																																																				
589	0.678	0.706	0.560	0.485	0.563	0.508	0.583	0.563	0.592	0.596	0.536	0.527																																																																																				
590	0.684	0.711	0.566	0.490	0.569	0.513	0.588	0.568	0.598	0.602	0.541	0.533																																																																																				
591	0.691	0.717	0.573	0.495	0.575	0.518	0.594	0.575	0.604	0.608	0.547	0.539																																																																																				
592	0.696	0.722	0.579	0.500	0.580	0.523	0.599	0.580	0.610	0.614	0.552	0.544																																																																																				
593	0.702	0.727	0.585	0.505	0.586	0.528	0.605	0.586	0.616	0.620	0.558	0.549																																																																																				
594	0.709	0.733	0.593	0.511	0.593	0.534	0.611	0.593	0.624	0.628	0.565	0.556																																																																																				
595	0.717	0.740	0.600	0.518	0.601	0.541	0.618	0.601	0.632	0.635	0.572	0.563																																																																																				
596	0.723	0.745	0.607	0.524	0.608	0.547	0.625	0.608	0.639	0.643	0.579	0.569																																																																																				
597	0.729	0.751	0.614	0.530	0.614	0.553	0.631	0.614	0.646	0.650	0.585	0.576																																																																																				
598	0.736	0.756	0.622	0.536	0.622	0.559	0.637	0.622	0.654	0.658	0.592	0.583																																																																																				
599	0.743	0.762	0.629	0.542	0.629	0.566	0.645	0.629	0.662	0.666	0.599	0.590																																																																																				
600	0.751	0.769	0.638	0.550	0.638	0.574	0.653	0.638	0.671	0.675	0.607	0.598																																																																																				
601	0.759	0.775	0.648	0.558	0.648	0.583	0.662	0.648	0.681	0.686	0.617	0.607																																																																																				
602	0.767	0.782	0.657	0.567	0.657	0.591	0.670	0.657	0.691	0.695	0.626	0.616																																																																																				
603	0.774	0.788	0.665	0.574	0.666	0.599	0.678	0.666	0.700	0.705	0.633	0.624																																																																																				
604	0.781	0.793	0.673	0.581	0.674	0.606	0.686	0.674	0.709	0.714	0.641	0.632																																																																																				
605	0.788	0.798	0.681	0.588	0.682	0.614	0.693	0.682	0.717	0.722	0.649	0.639																																																																																				
606	0.795	0.803	0.689	0.596	0.691	0.621	0.701	0.691	0.727	0.732	0.658	0.647																																																																																				
607	0.801	0.808	0.698	0.603	0.700	0.629	0.709	0.700	0.736	0.741	0.666	0.656																																																																																				
608	0.809	0.814	0.708	0.613	0.711	0.639	0.719	0.711	0.747	0.752	0.676	0.665																																																																																				
609	0.816	0.820	0.716	0.621	0.720	0.647	0.728	0.720	0.756	0.762	0.685	0.674																																																																																				
610	0.822	0.824	0.724	0.628	0.729	0.655	0.735	0.728	0.765	0.771	0.693	0.682																																																																																				
611	0.828	0.828	0.732	0.635	0.737	0.663	0.743	0.737	0.774	0.781	0.701	0.690																																																																																				
612	0.835	0.833	0.741	0.644	0.747	0.672	0.752	0.747	0.785	0.791	0.711	0.699																																																																																				
613	0.841	0.837	0.749	0.652	0.757	0.681	0.761	0.756	0.795	0.802	0.720	0.708																																																																																				
614	0.847	0.841	0.758	0.661	0.768	0.691	0.770	0.767	0.805	0.813	0.729	0.718																																																																																				
615	0.853	0.845	0.766	0.670	0.778	0.700	0.779	0.776	0.816	0.824	0.739	0.727																																																																																				
616	0.859	0.848	0.775	0.679	0.788	0.709	0.789	0.786	0.826	0.835	0.748	0.736																																																																																				
617	0.865	0.851	0.783	0.687	0.797	0.718	0.797	0.796	0.836	0.845	0.757	0.745																																																																																				
618	0.870	0.854	0.791	0.695	0.807	0.727	0.806	0.805	0.846	0.856	0.766	0.754																																																																																				
619	0.874	0.857	0.798	0.703	0.817	0.736	0.814	0.815	0.855	0.866	0.775	0.762																																																																																				
620	0.879	0.859	0.807	0.712	0.827	0.746	0.823	0.825	0.866	0.877	0.785	0.772																																																																																				
621	0.883	0.861	0.814	0.721	0.837	0.755	0.832	0.834	0.876	0.888	0.794	0.781																																																																																				
622	0.887	0.862	0.821	0.729	0.847	0.764	0.840	0.844	0.886	0.898	0.803	0.790																																																																																				
623	0.890	0.863	0.828	0.737	0.856	0.772	0.848	0.853	0.895	0.908	0.812	0.798																																																																																				
624	0.893	0.864	0.835	0.745	0.865	0.781	0.856	0.861	0.904	0.918	0.820	0.806																																																																																				
625	0.896	0.864	0.842	0.752	0.874	0.789	0.863	0.870	0.913	0.928	0.828	0.814																																																																																				
626	0.898	0.864	0.848	0.759	0.882	0.797	0.870	0.878	0.922	0.937	0.836	0.822																																																																																				
627	0.900	0.864	0.854	0.767	0.891	0.805	0.877	0.886	0.930	0.947	0.844	0.830																																																																																				
628	0.901	0.863	0.859	0.773	0.899	0.813	0.884	0.893	0.938	0.955	0.852	0.837																																																																																				
629	0.902	0.862	0.865	0.780	0.907	0.820	0.890	0.901	0.946	0.964	0.859	0.844																																																																																				
630	0.902	0.860	0.870	0.787	0.915	0.828	0.896	0.909	0.953	0.972	0.866	0.851																																																																																				
631	0.902	0.859	0.874	0.793	0.921	0.834	0.901	0.915	0.960	0.980	0.872	0.857																																																																																				
632	0.902	0.856	0.879	0.799	0.929	0.841	0.907	0.922	0.967	0.988	0.879	0.864																																																																																				
633	0.901	0.854	0.884	0.805	0.936	0.848	0.912	0.928	0.974	0.996	0.886	0.871																																																																																				
634	0.899	0.850	0.888	0.810	0.942	0.854	0.916	0.934	0.980	1.003	0.892	0.877																																																																																				
635	0.897	0.847	0.892	0.816	0.949	0.860	0.921	0.940	0.986	1.010	0.898	0.883																																																																																				
636	0.895	0.844	0.896	0.821	0.955	0.866	0.924	0.946	0.991	1.017	0.904	0.888																																																																																				
637	0.893	0.840	0.900	0.826	0.960	0.871	0.928	0.951	0.996	1.022	0.909	0.893																																																																																				
638	0.890	0.835	0.903	0.831	0.966	0.876	0.931	0.956	1.001	1.029	0.914	0.899																																																																																				
639	0.886	0.831	0.906	0.835	0.971	0.881	0.934	0.960	1.005	1.034	0.919	0.903																																																																																				
640	0.882	0.826	0.909	0.839	0.976	0.885	0.936	0.964	1.009	1.040	0.924	0.908																																																																																				
641	0.878	0.821	0.912	0.843	0.980	0.889	0.938	0.968	1.013	1.044	0.928	0.912																																																																																				
642	0.874	0.815	0.915	0.847	0.984	0.893	0.939	0.971	1.016	1.049	0.932	0.916																																																																																				
643	0.869	0.809	0.917	0.850	0.987	0.896	0.940	0.974	1.019	1.053	0.935	0.920																																																																																				
644	0.864	0.803	0.919	0.853	0.990	0.899	0.941	0.977	1.021	1.056	0.938	0.923																																																																																				
645	0.858	0.797	0.921	0.855	0.993	0.902	0.941	0.979	1.022	1.059	0.941	0.926																																																																																				
646	0.852	0.791	0.922	0.857	0.995	0.904	0.940	0.981	1.024	1.062	0.943	0.928																																																																																				
647	0.846	0.784	0.924	0.859	0.997	0.906	0.940	0.982	1.025	1.064	0.946	0.930																																																																																				
648	0.840	0.777	0.925	0.860	0.999	0.908	0.938	0.983	1.025	1.066	0.948	0.932																																																																																				
649	0.833	0.770	0.926	0.862	1.000	0.909	0.936	0.983	1.025	1.067	0.949	0.934																																																																																				
650	0.826	0.763	0.927	0.863	1.001	0.909	0.935	0.984	1.025	1.068	0.950	0.935																																																																																				
651	0.819	0.756	0.927	0.863	1.001	0.910	0.932	0.983	1.024	1.068	0.950	0.936																																																																																				
652	0.813	0.750	0.927	0.863	1.001	0.910	0.930	0.983	1.023	1.069	0.951	0.936																																																																																				
653	0.806	0.742	0.927	0.863	1.000	0.909	0.927	0.982	1.021	1.068	0.951	0.936																																																																																				
654	0.798	0.735	0.927	0.863	1.000	0.908	0.924	0.980	1.019	1.067	0.950	0.936																																																																																				
655	0.791	0.727	0.926	0.861	0.999	0.907	0.920	0.979	1.016	1.066	0.949	0.935																																																																																				
656	0.783	0.719	0.925	0.861	0.997	0.905	0.916	0.976	1.013	1.064	0.948	0.934																																																																																				
657	0.775	0.712	0.924	0.859	0.995	0.904	0.911	0.974	1.010	1.062	0.947	0.933																																																																																				
658	0.767	0.704	0.923	0.857	0.993	0.901	0.906	0.971	1.006	1.059	0.945	0.931																																																																																				
659	0.759	0.696	0.921	0.855	0.990	0.899	0.902	0.968	1.002	1.057	0.943	0.930																																																																																				
660	0.752	0.689	0.919	0.853	0.987	0.896	0.897	0.965	0.998	1.054	0.940	0.927																																																																																				
661	0.743	0.680	0.917	0.850	0.984	0.893	0.891	0.961	0.994	1.050	0.938	0.925																																																																																				
662	0.735	0.672	0.915	0.847	0.980	0.889	0.885	0.956	0.989	1.046	0.934	0.922																																																																																				
663	0.727	0.665	0.912	0.844	0.976	0.886	0.879	0.952	0.984	1.042	0.931	0.919																																																																																				
664	0.719	0.657	0.909	0.841	0.972	0.882	0.874	0.948	0.978	1.037	0.928	0.915																																																																																				
665	0.710	0.649	0.906	0.837	0.968	0.878	0.867	0.943	0.973	1.033	0.924	0.912																																																																																				
666	0.702	0.641	0.903	0.834	0.963	0.873	0.861	0.938	0.967	1.028	0.920	0.908																																																																																				
667	0.693	0.632	0.899	0.829	0.958	0.868	0.854	0.932	0.961	1.022	0.915	0.904																																																																																				
668	0.684	0.624	0.895	0.825	0.953	0.863	0.847	0.926	0.954	1.017	0.910	0.899																																																																																				
669	0.676	0.616	0.891	0.820	0.947	0.858	0.840	0.920	0.947	1.011	0.906	0.895																																																																																				
670	0.667	0.608	0.886	0.815	0.941	0.853	0.833	0.915	0.941	1.005	0.901	0.890																																																																																				
671	0.658	0.600	0.882	0.810	0.935	0.847	0.825	0.908	0.934	0.998	0.896	0.885																																																																																				
672	0.650	0.592	0.877	0.806	0.929	0.842	0.819	0.902	0.927	0.993	0.891	0.880																																																																																				
673	0.641	0.584	0.872	0.800	0.923	0.837	0.811	0.896	0.920	0.986	0.885	0.875																																																																																				
674	0.632	0.575	0.867	0.795	0.917	0.831	0.803	0.889	0.913	0.979	0.879	0.870																																																																																				
675	0.624	0.567	0.862	0.789	0.910	0.825	0.796	0.883	0.906	0.972	0.874	0.864																																																																																				
676	0.615	0.559	0.856	0.784	0.903	0.818	0.788	0.876	0.898	0.965	0.868	0.859																																																																																				
677	0.606	0.551	0.850	0.778	0.897	0.812	0.780	0.869	0.891	0.958	0.862	0.853																																																																																				
678	0.598	0.544	0.845	0.773	0.891	0.806	0.773	0.863	0.884	0.952	0.857	0.848																																																																																				
679	0.589	0.535	0.839	0.767	0.884	0.800	0.765	0.856	0.876	0.945	0.851	0.842																																																																																				
680	0.580	0.527	0.833	0.761	0.877	0.794	0.757	0.849	0.869	0.937	0.845	0.836																																																																																				
681	0.572	0.519	0.827	0.755	0.870	0.788	0.750	0.842	0.861	0.930	0.838	0.830																																																																																				
682	0.563	0.511	0.821	0.749	0.863	0.781	0.742	0.836	0.854	0.923	0.832	0.824																																																																																				
683	0.555	0.504	0.815	0.744	0.857	0.776	0.735	0.829	0.847	0.916	0.827	0.819																																																																																				
684	0.547	0.497	0.809	0.738	0.849	0.769	0.727	0.822	0.840	0.909	0.821	0.813																																																																																				
685	0.538	0.489	0.802	0.731	0.842	0.762	0.719	0.815	0.832	0.902	0.814	0.807																																																																																				
686	0.529	0.481	0.796	0.725	0.835	0.756	0.711	0.808	0.824	0.894	0.808	0.800																																																																																				
687	0.520	0.473	0.788	0.719	0.828	0.749	0.703	0.801	0.816	0.886	0.801	0.794																																																																																				
688	0.512	0.466	0.782	0.713	0.821	0.743	0.695	0.794	0.809	0.879	0.795	0.788																																																																																				
689	0.504	0.458	0.776	0.707	0.814	0.736	0.688	0.787	0.802	0.872	0.789	0.782																																																																																				
690	0.496	0.451	0.769	0.701	0.807	0.730	0.680	0.780	0.795	0.865	0.783	0.777																																																																																				
691	0.489	0.444	0.763	0.696	0.801	0.724	0.673	0.774	0.788	0.859	0.777	0.771																																																																																				
692	0.481	0.437	0.757	0.690	0.794	0.718	0.666	0.768	0.781	0.852	0.771	0.765																																																																																				
693	0.473	0.430	0.750	0.683	0.787	0.711	0.658	0.761	0.773	0.844	0.765	0.759																																																																																				
694	0.466	0.423	0.744	0.678	0.780	0.705	0.651	0.754	0.767	0.837	0.759	0.754																																																																																				
695	0.458	0.417	0.738	0.672	0.773	0.699	0.644	0.748	0.759	0.830	0.753	0.748																																																																																				
696	0.451	0.410	0.732	0.666	0.767	0.692	0.636	0.741	0.752	0.823	0.747	0.742																																																																																				
697	0.443	0.403	0.724	0.660	0.759	0.686	0.628	0.734	0.745	0.815	0.741	0.736																																																																																				
698	0.436	0.397	0.719	0.655	0.753	0.680	0.622	0.728	0.739	0.809	0.736	0.731																																																																																				
699	0.429	0.391	0.713	0.649	0.747	0.674	0.615	0.722	0.732	0.803	0.730	0.725																																																																																				
700	0.423	0.386	0.708	0.644	0.742	0.669	0.609	0.716	0.726	0.796	0.725	0.721																																																																																				
701	0.417	0.380	0.702	0.639	0.735	0.663	0.602	0.710	0.719	0.790	0.720	0.715																																																																																				
702	0.410	0.374	0.696	0.633	0.728	0.657	0.595	0.704	0.712	0.783	0.714	0.710																																																																																				
703	0.403	0.367	0.690	0.628	0.721	0.651	0.587	0.697	0.705	0.776	0.708	0.704																																																																																				
704	0.397	0.362	0.684	0.622	0.715	0.645	0.581	0.691	0.699	0.769	0.702	0.699																																																																																				
705	0.391	0.356	0.678	0.617	0.709	0.639	0.574	0.685	0.692	0.763	0.697	0.693																																																																																				
706	0.385	0.351	0.673	0.611	0.703	0.633	0.568	0.679	0.686	0.756	0.692	0.688																																																																																				
707	0.379	0.346	0.667	0.606	0.697	0.628	0.561	0.673	0.680	0.750	0.686	0.683																																																																																				
708	0.373	0.341	0.662	0.601	0.691	0.622	0.555	0.667	0.673	0.743	0.681	0.678																																																																																				
709	0.368	0.336	0.656	0.596	0.685	0.616	0.549	0.661	0.667	0.737	0.676	0.673																																																																																				
710	0.362	0.331	0.651	0.591	0.679	0.611	0.543	0.655	0.661	0.731	0.670	0.668																																																																																				
711	0.357	0.326	0.646	0.586	0.673	0.605	0.537	0.649	0.655	0.724	0.665	0.663																																																																																				
712	0.352	0.321	0.641	0.581	0.667	0.600	0.531	0.644	0.649	0.719	0.660	0.658																																																																																				
713	0.346	0.316	0.636	0.576	0.662	0.595	0.525	0.638	0.643	0.712	0.655	0.653																																																																																				
714	0.341	0.312	0.631	0.571	0.656	0.589	0.520	0.632	0.637	0.706	0.650	0.648																																																																																				
715	0.336	0.307	0.626	0.566	0.650	0.583	0.514	0.626	0.631	0.699	0.644	0.642																																																																																				
716	0.331	0.303	0.621	0.561	0.644	0.578	0.509	0.621	0.625	0.693	0.639	0.638																																																																																				
717	0.326	0.299	0.616	0.556	0.639	0.573	0.503	0.615	0.619	0.687	0.634	0.633																																																																																				
718	0.322	0.294	0.612	0.551	0.633	0.568	0.498	0.610	0.614	0.681	0.629	0.628																																																																																				
719	0.317	0.290	0.607	0.546	0.628	0.563	0.493	0.604	0.608	0.675	0.624	0.623																																																																																				
720	0.313	0.286	0.602	0.542	0.622	0.558	0.488	0.599	0.602	0.670	0.619	0.618																																																																																				
721	0.308	0.282	0.597	0.537	0.616	0.552	0.483	0.593	0.597	0.663	0.614	0.613																																																																																				
722	0.303	0.278	0.592	0.532	0.611	0.547	0.477	0.588	0.590	0.657	0.609	0.608																																																																																				
723	0.299	0.274	0.587	0.527	0.605	0.541	0.472	0.582	0.585	0.651	0.603	0.603																																																																																				
724	0.295	0.270	0.582	0.522	0.600	0.537	0.468	0.577	0.580	0.645	0.599	0.598																																																																																				
725	0.291	0.267	0.577	0.518	0.594	0.532	0.463	0.572	0.574	0.640	0.594	0.593																																																																																				
726	0.287	0.263	0.573	0.513	0.589	0.527	0.458	0.567	0.569	0.634	0.589	0.589																																																																																				
727	0.282	0.260	0.568	0.508	0.584	0.522	0.454	0.562	0.564	0.628	0.584	0.584																																																																																				
728	0.279	0.256	0.563	0.504	0.578	0.517	0.449	0.556	0.558	0.623	0.579	0.579																																																																																				
729	0.275	0.252	0.558	0.499	0.573	0.512	0.445	0.551	0.553	0.617	0.574	0.574																																																																																				
730	0.271	0.249	0.554	0.495	0.568	0.508	0.441	0.547	0.548	0.612	0.569	0.570																																																																																				
731	0.267	0.246	0.549	0.491	0.563	0.503	0.436	0.542	0.543	0.607	0.565	0.565																																																																																				
732	0.264	0.243	0.545	0.487	0.558	0.499	0.433	0.537	0.539	0.602	0.560	0.561																																																																																				
733	0.261	0.240	0.541	0.482	0.554	0.495	0.428	0.533	0.534	0.597	0.556	0.556																																																																																				
734	0.258	0.237	0.536	0.478	0.549	0.490	0.425	0.528	0.530	0.592	0.552	0.552																																																																																				
735	0.254	0.234	0.532	0.474	0.544	0.486	0.421	0.524	0.525	0.587	0.547	0.548																																																																																				
736	0.251	0.231	0.527	0.470	0.539	0.482	0.417	0.519	0.520	0.581	0.543	0.543																																																																																				
737	0.247	0.228	0.523	0.466	0.534	0.477	0.413	0.514	0.515	0.576	0.538	0.539																																																																																				
738	0.244	0.225	0.518	0.462	0.529	0.473	0.409	0.510	0.511	0.572	0.534	0.534																																																																																				
739	0.241	0.222	0.513	0.457	0.525	0.469	0.405	0.505	0.506	0.566	0.529	0.530																																																																																				
740	0.238	0.220	0.509	0.453	0.520	0.465	0.402	0.501	0.502	0.561	0.525	0.526																																																																																				
741	0.235	0.217	0.504	0.449	0.515	0.460	0.398	0.497	0.497	0.557	0.520	0.521																																																																																				
742	0.232	0.214	0.500	0.445	0.511	0.456	0.394	0.492	0.493	0.552	0.516	0.517																																																																																				
743	0.228	0.211	0.495	0.441	0.506	0.452	0.391	0.488	0.489	0.547	0.512	0.513																																																																																				
744	0.225	0.208	0.491	0.437	0.502	0.448	0.387	0.483	0.484	0.542	0.508	0.508																																																																																				
745	0.222	0.206	0.486	0.433	0.497	0.444	0.383	0.479	0.480	0.537	0.503	0.504																																																																																				
746	0.219	0.203	0.482	0.429	0.493	0.440	0.380	0.475	0.475	0.533	0.499	0.500																																																																																				
747	0.216	0.200	0.477	0.425	0.488	0.436	0.376	0.471	0.471	0.528	0.495	0.496																																																																																				
748	0.214	0.198	0.473	0.422	0.484	0.432	0.373	0.466	0.467	0.523	0.491	0.492																																																																																				
749	0.211	0.195	0.469	0.418	0.479	0.428	0.369	0.462	0.463	0.519	0.486	0.488																																																																																				
750	0.208	0.193	0.464	0.414	0.475	0.425	0.366	0.458	0.459	0.515	0.482	0.484																																																																																				
751	0.206	0.191	0.460	0.411	0.471	0.421	0.363	0.454	0.455	0.510	0.479	0.480																																																																																				
752	0.203	0.189	0.457	0.407	0.467	0.417	0.360	0.450	0.451	0.506	0.475	0.476																																																																																				
753	0.201	0.186	0.452	0.404	0.464	0.414	0.357	0.447	0.448	0.502	0.471	0.473																																																																																				
754	0.198	0.184	0.448	0.400	0.460	0.411	0.354	0.443	0.444	0.498	0.468	0.469																																																																																				
755	0.196	0.182	0.444	0.397	0.456	0.407	0.350	0.439	0.440	0.494	0.464	0.466																																																																																				
756	0.193	0.180	0.440	0.394	0.452	0.404	0.348	0.436	0.436	0.490	0.460	0.462																																																																																				
757	0.191	0.178	0.437	0.391	0.448	0.400	0.345	0.432	0.433	0.486	0.457	0.458																																																																																				
758	0.189	0.175	0.432	0.386	0.444	0.396	0.341	0.428	0.429	0.481	0.452	0.454																																																																																				
759	0.186	0.173	0.429	0.383	0.440	0.393	0.338	0.424	0.425	0.477	0.449	0.451																																																																																				
760	0.184	0.171	0.425	0.380	0.436	0.390	0.335	0.421	0.421	0.473	0.445	0.447																																																																																				
761	0.182	0.169	0.420	0.376	0.432	0.386	0.332	0.417	0.417	0.469	0.441	0.443																																																																																				
762	0.179	0.167	0.416	0.373	0.428	0.383	0.329	0.413	0.414	0.465	0.438	0.439																																																																																				
763	0.177	0.165	0.413	0.370	0.425	0.380	0.326	0.410	0.411	0.461	0.434	0.436																																																																																				
764	0.175	0.164	0.410	0.367	0.422	0.377	0.324	0.407	0.408	0.458	0.431	0.433																																																																																				
765	0.174	0.162	0.407	0.365	0.419	0.374	0.322	0.405	0.405	0.455	0.429	0.431																																																																																				
766	0.172	0.161	0.404	0.362	0.416	0.372	0.320	0.402	0.402	0.452	0.426	0.428																																																																																				
767	0.170	0.159	0.400	0.359	0.412	0.368	0.317	0.398	0.399	0.448	0.422	0.424																																																																																				
768	0.168	0.157	0.396	0.356	0.408	0.365	0.314	0.394	0.395	0.444	0.419	0.421																																																																																				
769	0.166	0.155	0.393	0.353	0.405	0.362	0.311	0.391	0.392	0.440	0.415	0.417																																																																																				
770	0.164	0.153	0.389	0.350	0.402	0.359	0.309	0.388	0.389	0.437	0.412	0.414																																																																																				
771	0.162	0.151	0.386	0.347	0.398	0.356	0.306	0.385	0.385	0.433	0.409	0.411																																																																																				
772	0.160	0.150	0.383	0.344	0.395	0.353	0.304	0.382	0.382	0.430	0.406	0.408																																																																																				
773	0.159	0.148	0.380	0.341	0.392	0.350	0.301	0.379	0.379	0.426	0.403	0.405																																																																																				
774	0.157	0.147	0.376	0.338	0.389	0.347	0.299	0.376	0.376	0.423	0.400	0.402																																																																																				
775	0.155	0.145	0.373	0.336	0.386	0.345	0.296	0.373	0.373	0.419	0.397	0.399																																																																																				
776	0.153	0.144	0.370	0.333	0.382	0.342	0.294	0.370	0.370	0.416	0.393	0.396																																																																																				
777	0.152	0.142	0.367	0.330	0.379	0.339	0.291	0.367	0.367	0.413	0.390	0.393																																																																																				
778	0.150	0.141	0.364	0.327	0.376	0.336	0.289	0.364	0.364	0.409	0.387	0.390																																																																																				
779	0.148	0.139	0.361	0.325	0.373	0.333	0.287	0.361	0.361	0.406	0.384	0.387																																																																																				
780	0.146	0.138	0.358	0.322	0.370	0.331	0.284	0.358	0.358	0.403	0.381	0.384																																																																																				
781	0.145	0.136	0.354	0.319	0.367	0.328	0.282	0.355	0.355	0.400	0.379	0.381																																																																																				
782	0.144	0.135	0.352	0.317	0.364	0.325	0.280	0.352	0.353	0.397	0.376	0.378																																																																																				
783	0.142	0.134	0.349	0.314	0.361	0.323	0.277	0.349	0.350	0.393	0.373	0.375																																																																																				
784	0.141	0.132	0.346	0.311	0.358	0.320	0.276	0.346	0.347	0.390	0.370	0.372																																																																																				
785	0.139	0.131	0.343	0.309	0.355	0.317	0.273	0.343	0.344	0.387	0.367	0.369																																																																																				
786	0.137	0.129	0.340	0.306	0.351	0.315	0.271	0.340	0.341	0.384	0.363	0.366																																																																																				
787	0.136	0.128	0.337	0.303	0.348	0.312	0.269	0.338	0.338	0.380	0.361	0.363																																																																																				
788	0.134	0.127	0.334	0.301	0.346	0.309	0.266	0.335	0.335	0.377	0.358	0.360																																																																																				
789	0.133	0.126	0.332	0.299	0.343	0.307	0.265	0.332	0.333	0.374	0.355	0.358																																																																																				
790	0.132	0.124	0.329	0.296	0.340	0.304	0.263	0.330	0.330	0.371	0.353	0.355																																																																																				
791	0.130	0.123	0.326	0.294	0.338	0.302	0.261	0.327	0.328	0.368	0.350	0.352																																																																																				
792	0.129	0.122	0.324	0.291	0.335	0.299	0.259	0.324	0.325	0.365	0.347	0.349																																																																																				
793	0.128	0.120	0.321	0.289	0.332	0.297	0.257	0.321	0.322	0.362	0.344	0.347																																																																																				
794	0.126	0.119	0.318	0.286	0.329	0.295	0.255	0.319	0.320	0.360	0.342	0.344																																																																																				
795	0.125	0.118	0.315	0.284	0.326	0.292	0.253	0.316	0.317	0.356	0.339	0.342																																																																																				
796	0.124	0.117	0.313	0.282	0.324	0.290	0.251	0.314	0.314	0.354	0.337	0.339																																																																																				
797	0.123	0.116	0.310	0.279	0.321	0.288	0.249	0.311	0.312	0.351	0.334	0.337																																																																																				
798	0.121	0.115	0.308	0.277	0.319	0.285	0.247	0.309	0.310	0.348	0.332	0.334																																																																																				
799	0.120	0.114	0.305	0.275	0.316	0.283	0.245	0.306	0.307	0.346	0.329	0.331																																																																																				
800	0.119	0.113	0.303	0.273	0.314	0.281	0.243	0.304	0.305	0.343	0.326	0.329																																																																																				
801	0.118	0.112	0.300	0.270	0.311	0.279	0.241	0.301	0.302	0.340	0.324	0.326																																																																																				
802	0.117	0.111	0.298	0.269	0.309	0.277	0.240	0.299	0.300	0.338	0.322	0.324																																																																																				
803	0.116	0.110	0.296	0.266	0.306	0.275	0.238	0.297	0.298	0.335	0.319	0.322																																																																																				
804	0.115	0.109	0.293	0.264	0.304	0.272	0.236	0.295	0.295	0.332	0.317	0.319																																																																																				
805	0.114	0.108	0.291	0.262	0.301	0.270	0.234	0.292	0.293	0.330	0.314	0.317																																																																																				
806	0.113	0.107	0.289	0.260	0.299	0.268	0.233	0.290	0.291	0.327	0.312	0.315																																																																																				
807	0.112	0.106	0.287	0.258	0.297	0.266	0.232	0.288	0.289	0.325	0.310	0.312																																																																																				
808	0.111	0.106	0.285	0.256	0.295	0.265	0.230	0.286	0.287	0.323	0.308	0.310																																																																																				
809	0.110	0.105	0.283	0.255	0.292	0.263	0.228	0.284	0.285	0.320	0.305	0.308																																																																																				
810	0.109	0.104	0.281	0.253	0.290	0.261	0.227	0.282	0.283	0.318	0.303	0.306																																																																																				
811	0.108	0.103	0.279	0.251	0.288	0.259	0.225	0.280	0.281	0.316	0.301	0.304																																																																																				
812	0.107	0.102	0.276	0.249	0.286	0.257	0.224	0.278	0.279	0.313	0.299	0.301																																																																																				
813	0.106	0.102	0.274	0.247	0.284	0.255	0.222	0.276	0.277	0.311	0.297	0.299																																																																																				
814	0.106	0.101	0.272	0.245	0.282	0.253	0.221	0.274	0.275	0.309	0.295	0.297																																																																																				
815	0.105	0.100	0.271	0.243	0.280	0.251	0.219	0.272	0.273	0.307	0.293	0.295																																																																																				
816	0.104	0.099	0.268	0.241	0.277	0.249	0.218	0.270	0.271	0.304	0.290	0.293																																																																																				
817	0.103	0.099	0.266	0.239	0.276	0.248	0.217	0.268	0.269	0.302	0.289	0.291																																																																																				
818	0.102	0.098	0.265	0.238	0.274	0.246	0.215	0.266	0.267	0.300	0.287	0.289																																																																																				
819	0.102	0.098	0.262	0.236	0.272	0.244	0.213	0.264	0.265	0.298	0.285	0.287																																																																																				
820	0.101	0.097	0.260	0.233	0.269	0.242	0.211	0.261	0.263	0.295	0.282	0.285																																																																																				
821	0.100	0.096	0.258	0.232	0.267	0.240	0.210	0.259	0.261	0.293	0.280	0.282																																																																																				
822	0.100	0.095	0.256	0.230	0.265	0.239	0.209	0.258	0.260	0.291	0.279	0.281																																																																																				
823	0.099	0.095	0.256	0.230	0.265	0.238	0.209	0.257	0.259	0.290	0.278	0.280																																																																																				
824	0.099	0.095	0.255	0.229	0.264	0.237	0.208	0.257	0.258	0.290	0.277	0.279																																																																																				
825	0.099	0.095	0.254	0.228	0.263	0.236	0.208	0.256	0.257	0.288	0.276	0.278																																																																																				
826	0.098	0.094	0.252	0.227	0.261	0.235	0.207	0.254	0.255	0.286	0.274	0.276																																																																																				
827	0.098	0.094	0.250	0.225	0.259	0.233	0.205	0.252	0.254	0.284	0.272	0.275																																																																																				
828	0.097	0.093	0.249	0.224	0.258	0.232	0.204	0.251	0.252	0.283	0.270	0.273																																																																																				
829	0.097	0.093	0.248	0.223	0.257	0.231	0.204	0.250	0.252	0.282	0.270	0.272																																																																																				
830	0.097	0.093	0.247	0.222	0.256	0.230	0.203	0.249	0.251	0.281	0.268	0.271																																																																																				
831	0.097	0.093	0.246	0.221	0.255	0.229	0.202	0.248	0.249	0.279	0.267	0.270																																																																																				
832	0.096	0.093	0.243	0.218	0.252	0.227	0.200	0.245	0.247	0.277	0.265	0.268																																																																																				
833	0.096	0.092	0.242	0.217	0.250	0.226	0.199	0.244	0.246	0.276	0.263	0.266																																																																																				
834	0.096	0.092	0.241	0.216	0.249	0.225	0.198	0.243	0.245	0.274	0.262	0.265																																																																																				
835	0.095	0.092	0.240	0.215	0.248	0.224	0.198	0.242	0.244	0.273	0.261	0.264																																																																																				
836	0.095	0.091	0.239	0.214	0.247	0.223	0.197	0.241	0.243	0.272	0.260	0.262																																																																																				
837	0.095	0.091	0.238	0.213	0.246	0.222	0.196	0.240	0.241	0.270	0.258	0.261																																																																																				
838	0.094	0.091	0.235	0.211	0.244	0.220	0.195	0.238	0.240	0.269	0.257	0.259																																																																																				
839	0.093	0.090	0.234	0.210	0.242	0.219	0.194	0.236	0.238	0.266	0.255	0.258																																																																																				
840	0.093	0.090	0.233	0.209	0.241	0.217	0.193	0.235	0.237	0.265	0.254	0.256																																																																																				
841	0.093	0.089	0.231	0.208	0.239	0.216	0.192	0.233	0.236	0.264	0.252	0.255																																																																																				
842	0.092	0.089	0.230	0.207	0.238	0.215	0.191	0.232	0.235	0.262	0.251	0.253																																																																																				
843	0.092	0.089	0.229	0.206	0.237	0.214	0.190	0.231	0.233	0.261	0.250	0.252																																																																																				
844	0.091	0.088	0.227	0.204	0.235	0.212	0.189	0.230	0.232	0.259	0.248	0.251																																																																																				
845	0.091	0.088	0.226	0.203	0.234	0.211	0.188	0.228	0.231	0.258	0.246	0.249																																																																																				
846	0.090	0.088	0.224	0.202	0.233	0.210	0.187	0.227	0.229	0.256	0.245	0.248																																																																																				
847	0.090	0.087	0.223	0.200	0.231	0.208	0.185	0.225	0.228	0.255	0.244	0.246																																																																																				
848	0.090	0.087	0.222	0.199	0.230	0.208	0.185	0.224	0.227	0.253	0.242	0.245																																																																																				
849	0.089	0.086	0.220	0.198	0.229	0.206	0.183	0.223	0.226	0.252	0.241	0.244																																																																																				
850	0.089	0.086	0.219	0.197	0.227	0.205	0.183	0.222	0.224	0.250	0.240	0.242																																																																																				
851	0.089	0.086	0.218	0.196	0.226	0.204	0.182	0.221	0.223	0.249	0.238	0.241																																																																																				
852	0.088	0.086	0.217	0.195	0.225	0.203	0.181	0.219	0.222	0.248	0.237	0.240																																																																																				
853	0.088	0.085	0.215	0.194	0.224	0.202	0.180	0.218	0.221	0.246	0.236	0.238																																																																																				
854	0.088	0.085	0.214	0.193	0.222	0.201	0.179	0.217	0.220	0.245	0.235	0.237																																																																																				
855	0.087	0.085	0.213	0.192	0.221	0.200	0.178	0.216	0.218	0.244	0.234	0.236																																																																																				
856	0.087	0.084	0.212	0.190	0.220	0.199	0.177	0.214	0.217	0.242	0.232	0.234																																																																																				
857	0.086	0.084	0.211	0.189	0.219	0.198	0.177	0.213	0.216	0.241	0.231	0.234																																																																																				
858	0.086	0.084	0.210	0.188	0.217	0.197	0.176	0.212	0.215	0.240	0.230	0.233																																																																																				
859	0.086	0.084	0.208	0.187	0.216	0.196	0.175	0.211	0.214	0.238	0.228	0.231																																																																																				
860	0.086	0.084	0.207	0.186	0.215	0.195	0.174	0.210	0.213	0.237	0.227	0.230																																																																																				
861	0.086	0.083	0.206	0.185	0.214	0.194	0.174	0.209	0.212	0.236	0.226	0.229																																																																																				
862	0.086	0.083	0.206	0.185	0.213	0.193	0.173	0.208	0.211	0.235	0.225	0.228																																																																																				
863	0.085	0.083	0.204	0.184	0.212	0.192	0.172	0.207	0.210	0.234	0.224	0.227																																																																																				
864	0.085	0.083	0.204	0.183	0.211	0.192	0.172	0.206	0.209	0.233	0.223	0.226																																																																																				
865	0.085	0.083	0.203	0.182	0.210	0.191	0.171	0.205	0.208	0.232	0.222	0.225																																																																																				
866	0.085	0.083	0.202	0.182	0.209	0.190	0.171	0.204	0.208	0.231	0.221	0.224																																																																																				
867	0.085	0.083	0.201	0.181	0.208	0.189	0.170	0.204	0.207	0.230	0.220	0.223																																																																																				
868	0.085	0.083	0.200	0.180	0.207	0.189	0.170	0.203	0.206	0.229	0.219	0.223																																																																																				
869	0.085	0.083	0.200	0.180	0.207	0.188	0.169	0.202	0.206	0.228	0.219	0.222																																																																																				
870	0.085	0.083	0.199	0.179	0.206	0.188	0.169	0.201	0.205	0.228	0.218	0.221																																																																																				
871	0.085	0.083	0.199	0.179	0.205	0.187	0.168	0.201	0.204	0.227	0.217	0.220																																																																																				
872	0.085	0.083	0.198	0.178	0.204	0.187	0.168	0.200	0.204	0.226	0.216	0.220																																																																																				
873	0.086	0.083	0.197	0.177	0.204	0.186	0.167	0.199	0.203	0.225	0.215	0.219																																																																																				
874	0.086	0.083	0.196	0.177	0.203	0.185	0.167	0.199	0.203	0.225	0.215	0.218																																																																																				
875	0.086	0.083	0.196	0.176	0.202	0.184	0.166	0.198	0.201	0.224	0.213	0.217																																																																																				
876	0.085	0.083	0.195	0.175	0.201	0.184	0.166	0.197	0.201	0.223	0.213	0.216																																																																																				
877	0.085	0.083	0.194	0.174	0.200	0.183	0.165	0.196	0.200	0.222	0.212	0.215																																																																																				
878	0.085	0.083	0.192	0.172	0.198	0.181	0.164	0.194	0.198	0.220	0.210	0.214																																																																																				
879	0.084	0.082	0.190	0.171	0.196	0.180	0.162	0.192	0.197	0.218	0.209	0.212																																																																																				
880	0.083	0.081	0.189	0.170	0.195	0.178	0.161	0.191	0.195	0.217	0.207	0.210																																																																																				
881	0.083	0.081	0.188	0.169	0.195	0.178	0.161	0.191	0.195	0.216	0.207	0.210																																																																																				
882	0.083	0.081	0.188	0.169	0.195	0.177	0.160	0.190	0.194	0.215	0.206	0.209																																																																																				
883	0.083	0.081	0.188	0.169	0.194	0.177	0.160	0.190	0.194	0.214	0.205	0.208																																																																																				
884	0.083	0.081	0.188	0.168	0.194	0.177	0.161	0.190	0.193	0.214	0.205	0.208																																																																																				
885	0.082	0.080	0.187	0.167	0.193	0.176	0.160	0.189	0.192	0.213	0.204	0.207																																																																																				
886	0.082	0.080	0.185	0.166	0.192	0.174	0.158	0.188	0.191	0.211	0.203	0.205																																																																																				
887	0.081	0.080	0.184	0.165	0.190	0.173	0.157	0.186	0.190	0.210	0.201	0.204																																																																																				
888	0.081	0.080	0.183	0.164	0.190	0.172	0.156	0.185	0.189	0.209	0.201	0.203																																																																																				
889	0.081	0.079	0.182	0.163	0.189	0.172	0.156	0.185	0.188	0.208	0.200	0.202																																																																																				
890	0.081	0.079	0.181	0.162	0.188	0.171	0.155	0.183	0.187	0.207	0.199	0.201																																																																																				
891	0.081	0.079	0.180	0.161	0.187	0.170	0.154	0.183	0.186	0.206	0.198	0.200																																																																																				
892	0.080	0.079	0.179	0.160	0.185	0.169	0.153	0.181	0.185	0.205	0.197	0.199																																																																																				
893	0.080	0.079	0.178	0.159	0.184	0.168	0.152	0.181	0.184	0.204	0.196	0.198																																																																																				
894	0.080	0.079	0.177	0.159	0.184	0.167	0.152	0.180	0.184	0.203	0.195	0.197																																																																																				
895	0.080	0.079	0.177	0.158	0.183	0.167	0.152	0.180	0.183	0.203	0.195	0.197																																																																																				
896	0.080	0.078	0.176	0.158	0.183	0.167	0.151	0.179	0.183	0.202	0.194	0.196																																																																																				
897	0.080	0.079	0.176	0.158	0.183	0.166	0.151	0.179	0.182	0.202	0.193	0.196																																																																																				
898	0.080	0.079	0.176	0.158	0.183	0.166	0.151	0.178	0.182	0.201	0.193	0.196																																																																																				
899	0.080	0.079	0.175	0.157	0.182	0.165	0.150	0.178	0.181	0.200	0.192	0.195																																																																																				
900	0.080	0.079	0.174	0.156	0.180	0.164	0.149	0.177	0.180	0.199	0.191	0.193																																																																																				
901	0.080	0.079	0.173	0.155	0.180	0.164	0.149	0.176	0.179	0.199	0.191	0.193																																																																																				
902	0.080	0.079	0.172	0.154	0.178	0.163	0.148	0.175	0.178	0.197	0.190	0.192																																																																																				
903	0.079	0.078	0.171	0.153	0.178	0.162	0.147	0.174	0.178	0.197	0.189	0.191																																																																																				
904	0.080	0.078	0.171	0.153	0.177	0.162	0.147	0.174	0.177	0.196	0.188	0.191																																																																																				
905	0.080	0.078	0.171	0.153	0.177	0.161	0.147	0.174	0.177	0.196	0.188	0.190																																																																																				
906	0.080	0.079	0.172	0.153	0.178	0.161	0.148	0.174	0.177	0.196	0.188	0.190																																																																																				
907	0.080	0.079	0.171	0.153	0.177	0.161	0.148	0.173	0.177	0.195	0.187	0.190																																																																																				
908	0.080	0.079	0.170	0.152	0.177	0.161	0.147	0.173	0.176	0.195	0.187	0.189																																																																																				
909	0.080	0.079	0.170	0.152	0.176	0.160	0.146	0.172	0.176	0.194	0.186	0.188																																																																																				
910	0.081	0.079	0.169	0.151	0.175	0.160	0.146	0.172	0.175	0.194	0.186	0.188																																																																																				
911	0.081	0.080	0.169	0.151	0.175	0.159	0.146	0.171	0.175	0.193	0.185	0.188																																																																																				
912	0.081	0.080	0.168	0.150	0.174	0.159	0.146	0.171	0.175	0.193	0.185	0.187																																																																																				
913	0.081	0.081	0.168	0.150	0.174	0.159	0.145	0.170	0.174	0.192	0.185	0.187																																																																																				
914	0.082	0.081	0.167	0.150	0.173	0.158	0.145	0.169	0.174	0.192	0.184	0.186																																																																																				
915	0.082	0.081	0.167	0.150	0.173	0.158	0.145	0.170	0.173	0.191	0.184	0.186																																																																																				
916	0.082	0.081	0.168	0.150	0.173	0.158	0.145	0.170	0.174	0.191	0.184	0.186																																																																																				
917	0.082	0.081	0.168	0.150	0.174	0.158	0.146	0.170	0.174	0.192	0.184	0.186																																																																																				
918	0.083	0.082	0.168	0.150	0.174	0.159	0.146	0.170	0.174	0.192	0.184	0.186																																																																																				
919	0.084	0.082	0.169	0.151	0.174	0.159	0.147	0.170	0.174	0.192	0.184	0.186																																																																																				
920	0.084	0.083	0.169	0.150	0.174	0.159	0.147	0.170	0.174	0.192	0.184	0.186																																																																																				
921	0.085	0.084	0.169	0.150	0.174	0.159	0.147	0.170	0.174	0.192	0.184	0.186																																																																																				
922	0.086	0.084	0.169	0.151	0.174	0.159	0.147	0.171	0.175	0.192	0.184	0.187																																																																																				
923	0.087	0.085	0.170	0.151	0.175	0.160	0.147	0.171	0.175	0.193	0.184	0.187																																																																																				
924	0.087	0.086	0.170	0.152	0.175	0.160	0.148	0.172	0.176	0.193	0.185	0.187																																																																																				
925	0.089	0.087	0.171	0.152	0.176	0.160	0.149	0.172	0.176	0.194	0.185	0.188																																																																																				
926	0.089	0.088	0.171	0.153	0.177	0.161	0.150	0.173	0.177	0.195	0.186	0.189																																																																																				
927	0.091	0.089	0.172	0.153	0.177	0.162	0.150	0.174	0.178	0.195	0.187	0.189																																																																																				
928	0.092	0.091	0.173	0.154	0.178	0.163	0.151	0.175	0.179	0.196	0.188	0.190																																																																																				
929	0.093	0.092	0.174	0.155	0.179	0.163	0.152	0.176	0.180	0.197	0.189	0.191																																																																																				
930	0.095	0.094	0.175	0.156	0.180	0.164	0.153	0.177	0.181	0.198	0.190	0.192																																																																																				
931	0.096	0.095	0.176	0.157	0.181	0.165	0.154	0.178	0.182	0.200	0.191	0.193																																																																																				
932	0.098	0.097	0.177	0.158	0.182	0.166	0.156	0.179	0.183	0.201	0.192	0.194																																																																																				
933	0.100	0.099	0.179	0.159	0.184	0.168	0.157	0.180	0.185	0.203	0.193	0.195																																																																																				
934	0.101	0.100	0.180	0.160	0.185	0.169	0.159	0.182	0.187	0.204	0.195	0.197																																																																																				
935	0.103	0.102	0.182	0.161	0.187	0.170	0.160	0.183	0.188	0.206	0.196	0.198																																																																																				
936	0.105	0.104	0.183	0.163	0.188	0.172	0.162	0.185	0.190	0.207	0.198	0.200																																																																																				
937	0.107	0.106	0.185	0.164	0.190	0.173	0.163	0.186	0.192	0.209	0.199	0.201																																																																																				
938	0.108	0.107	0.186	0.165	0.192	0.174	0.165	0.188	0.193	0.210	0.200	0.202																																																																																				
939	0.110	0.109	0.188	0.167	0.193	0.176	0.167	0.190	0.195	0.212	0.202	0.204																																																																																				
940	0.112	0.111	0.190	0.168	0.195	0.177	0.168	0.192	0.196	0.214	0.204	0.205																																																																																				
941	0.115	0.114	0.192	0.170	0.197	0.179	0.171	0.194	0.199	0.216	0.206	0.207																																																																																				
942	0.117	0.117	0.195	0.172	0.200	0.182	0.173	0.196	0.201	0.219	0.208	0.210																																																																																				
943	0.120	0.119	0.197	0.174	0.202	0.183	0.175	0.199	0.204	0.222	0.211	0.212																																																																																				
944	0.123	0.122	0.200	0.176	0.204	0.186	0.177	0.201	0.206	0.224	0.213	0.214																																																																																				
945	0.125	0.124	0.203	0.179	0.207	0.188	0.180	0.204	0.209	0.227	0.216	0.217																																																																																				
946	0.129	0.128	0.206	0.182	0.211	0.192	0.184	0.207	0.213	0.231	0.219	0.221																																																																																				
947	0.133	0.132	0.209	0.185	0.214	0.195	0.187	0.211	0.216	0.234	0.222	0.224																																																																																				
948	0.137	0.136	0.213	0.188	0.218	0.198	0.191	0.215	0.221	0.239	0.227	0.228																																																																																				
949	0.141	0.140	0.218	0.192	0.223	0.202	0.195	0.219	0.225	0.244	0.231	0.232																																																																																				
950	0.145	0.144	0.223	0.196	0.227	0.206	0.199	0.224	0.230	0.248	0.235	0.236																																																																																				
951	0.149	0.148	0.227	0.200	0.231	0.210	0.203	0.228	0.234	0.253	0.239	0.240																																																																																				
952	0.153	0.152	0.231	0.203	0.235	0.213	0.207	0.232	0.238	0.257	0.242	0.244																																																																																				
953	0.158	0.157	0.236	0.207	0.240	0.218	0.212	0.237	0.243	0.262	0.247	0.248																																																																																				
954	0.163	0.162	0.241	0.211	0.245	0.223	0.217	0.242	0.248	0.268	0.252	0.254																																																																																				
955	0.168	0.167	0.246	0.216	0.251	0.227	0.222	0.247	0.254	0.274	0.258	0.259																																																																																				
956	0.173	0.172	0.251	0.220	0.255	0.231	0.226	0.252	0.259	0.279	0.262	0.263																																																																																				
957	0.177	0.176	0.255	0.224	0.259	0.235	0.231	0.256	0.263	0.283	0.266	0.267																																																																																				
958	0.181	0.180	0.259	0.227	0.263	0.239	0.234	0.260	0.267	0.287	0.270	0.271																																																																																				
959	0.184	0.182	0.261	0.229	0.266	0.241	0.237	0.262	0.270	0.290	0.273	0.273																																																																																				
960	0.186	0.185	0.264	0.231	0.268	0.243	0.239	0.265	0.272	0.293	0.275	0.276																																																																																				
961	0.188	0.187	0.266	0.233	0.270	0.245	0.241	0.267	0.274	0.295	0.277	0.277																																																																																				
962	0.190	0.189	0.267	0.234	0.271	0.246	0.242	0.268	0.276	0.296	0.278	0.278																																																																																				
963	0.191	0.190	0.268	0.235	0.272	0.247	0.243	0.269	0.277	0.297	0.279	0.279																																																																																				
964	0.192	0.191	0.269	0.235	0.273	0.248	0.244	0.270	0.277	0.298	0.280	0.280																																																																																				
965	0.193	0.192	0.270	0.236	0.274	0.248	0.245	0.270	0.278	0.299	0.280	0.281																																																																																				
966	0.194	0.193	0.270	0.236	0.274	0.249	0.245	0.271	0.279	0.299	0.281	0.281																																																																																				
967	0.194	0.193	0.270	0.236	0.274	0.249	0.245	0.271	0.279	0.299	0.281	0.281																																																																																				
968	0.195	0.194	0.270	0.237	0.274	0.249	0.245	0.271	0.279	0.300	0.281	0.281																																																																																				
969	0.195	0.194	0.271	0.237	0.275	0.249	0.246	0.271	0.279	0.300	0.281	0.281																																																																																				
970	0.196	0.194	0.271	0.237	0.275	0.249	0.246	0.271	0.279	0.300	0.281	0.281																																																																																				
971	0.196	0.195	0.271	0.237	0.275	0.249	0.246	0.271	0.279	0.300	0.281	0.281																																																																																				
972	0.196	0.195	0.271	0.237	0.275	0.249	0.246	0.272	0.279	0.299	0.281	0.281																																																																																				
973	0.197	0.195	0.271	0.237	0.274	0.249	0.246	0.271	0.279	0.299	0.281	0.281																																																																																				
974	0.197	0.196	0.270	0.236	0.274	0.248	0.246	0.271	0.279	0.299	0.280	0.281																																																																																				
975	0.197	0.196	0.270	0.236	0.273	0.248	0.245	0.270	0.278	0.298	0.280	0.280																																																																																				
976	0.196	0.195	0.269	0.235	0.272	0.247	0.244	0.269	0.277	0.297	0.279	0.279																																																																																				
977	0.196	0.194	0.267	0.234	0.271	0.246	0.243	0.268	0.276	0.296	0.278	0.278																																																																																				
978	0.195	0.194	0.267	0.234	0.270	0.246	0.243	0.268	0.276	0.295	0.277	0.277																																																																																				
979	0.195	0.193	0.267	0.233	0.270	0.245	0.242	0.267	0.275	0.295	0.276	0.277																																																																																				
980	0.195	0.194	0.267	0.234	0.270	0.245	0.243	0.267	0.275	0.295	0.276	0.277																																																																																				
981	0.195	0.194	0.267	0.234	0.271	0.245	0.243	0.268	0.275	0.295	0.276	0.277																																																																																				
982	0.195	0.194	0.267	0.233	0.271	0.245	0.243	0.267	0.274	0.294	0.275	0.276																																																																																				
983	0.194	0.193	0.265	0.232	0.269	0.243	0.242	0.265	0.273	0.292	0.274	0.275																																																																																				
984	0.193	0.191	0.263	0.230	0.266	0.241	0.239	0.263	0.271	0.290	0.272	0.272																																																																																				
985	0.191	0.190	0.261	0.228	0.264	0.239	0.237	0.261	0.268	0.288	0.270	0.270																																																																																				
986	0.190	0.189	0.259	0.226	0.262	0.238	0.236	0.259	0.267	0.286	0.268	0.268																																																																																				
987	0.188	0.188	0.257	0.225	0.260	0.236	0.234	0.257	0.265	0.284	0.266	0.266																																																																																				
988	0.187	0.186	0.255	0.222	0.258	0.234	0.232	0.255	0.262	0.281	0.264	0.264																																																																																				
989	0.185	0.184	0.252	0.220	0.255	0.232	0.229	0.252	0.260	0.279	0.262	0.262																																																																																				
990	0.183	0.182	0.250	0.218	0.253	0.230	0.227	0.250	0.258	0.277	0.260	0.260																																																																																				
991	0.182	0.181	0.248	0.217	0.252	0.229	0.226	0.249	0.256	0.275	0.258	0.258																																																																																				
992	0.182	0.180	0.248	0.217	0.252	0.228	0.226	0.248	0.256	0.274	0.257	0.258																																																																																				
993	0.181	0.180	0.248	0.217	0.251	0.228	0.226	0.248	0.255	0.273	0.257	0.257																																																																																				
994	0.181	0.180	0.248	0.217	0.251	0.227	0.226	0.247	0.254	0.273	0.256	0.256																																																																																				
995	0.180	0.179	0.247	0.215	0.250	0.226	0.225	0.246	0.253	0.271	0.254	0.255																																																																																				
996	0.179	0.177	0.244	0.213	0.248	0.224	0.223	0.244	0.251	0.269	0.252	0.253																																																																																				
997	0.176	0.175	0.241	0.211	0.244	0.221	0.220	0.241	0.248	0.266	0.249	0.250																																																																																				
998	0.174	0.173	0.238	0.208	0.241	0.219	0.217	0.238	0.245	0.263	0.247	0.247																																																																																				
999	0.172	0.171	0.236	0.206	0.239	0.217	0.214	0.235	0.242	0.260	0.244	0.245																																																																																				

结果
	1	2	3	4	5	6	7	8	9	10	11	12
A	0.902	0.864	0.927	0.863	1.001	0.910	0.941	0.984	1.025	1.069	0.951	0.936	Mean Max OD [Spectrum]
B	?????	?????	?????	?????	?????	?????	?????	?????	?????	?????	?????	?????	Mean Max OD [Spectrum]
C	?????	?????	?????	?????	?????	?????	?????	?????	?????	?????	?????	?????	Mean Max OD [Spectrum]
D	?????	?????	?????	?????	?????	?????	?????	?????	?????	?????	?????	?????	Mean Max OD [Spectrum]
E	?????	?????	?????	?????	?????	?????	?????	?????	?????	?????	?????	?????	Mean Max OD [Spectrum]
F	?????	?????	?????	?????	?????	?????	?????	?????	?????	?????	?????	?????	Mean Max OD [Spectrum]
G	?????	?????	?????	?????	?????	?????	?????	?????	?????	?????	?????	?????	Mean Max OD [Spectrum]
H	?????	?????	?????	?????	?????	?????	?????	?????	?????	?????	?????	?????	Mean Max OD [Spectrum]

