

软件版本	3.11.19



实验文件路径:	
方案文件路径:	



板编号	板 1
日期	2023/3/25
时间	10:09:55
检测仪类型:	Epoch 2
检测仪序列号:	2205170B
检测类型	检测仪

程序详细信息

板类型	96 WELL PLATE
完成后弹出板	
检测	吸收光 光谱
	A1..A12
	开始: 400 nm,  停止: 999 nm,  步骤: 1 nm
	检测前校准
	检测速度: 正常,  延迟: 100 msec,  测量值/数据点: 8

Spectrum

波长	A1	A2	A3	A4	A5	A6	A7	A8	A9	A10	A11	A12	B1	B2	B3	B4	B5	B6	B7	B8	B9	B10	B11	B12	C1	C2	C3	C4	C5	C6	C7	C8	C9	C10	C11	C12	D1	D2	D3	D4	D5	D6	D7	D8	D9	D10	D11	D12	E1	E2	E3	E4	E5	E6	E7	E8	E9	E10	E11	E12	F1	F2	F3	F4	F5	F6	F7	F8	F9	F10	F11	F12	G1	G2	G3	G4	G5	G6	G7	G8	G9	G10	G11	G12	H1	H2	H3	H4	H5	H6	H7	H8	H9	H10	H11	H12
400	0.543	0.542	0.616	0.563	0.539	0.582	0.528	0.541	0.463	0.636	0.603	0.506																																																																																				
401	0.541	0.540	0.614	0.562	0.538	0.581	0.527	0.539	0.462	0.634	0.601	0.505																																																																																				
402	0.540	0.539	0.613	0.560	0.536	0.579	0.526	0.538	0.461	0.632	0.599	0.503																																																																																				
403	0.538	0.538	0.611	0.559	0.535	0.577	0.524	0.536	0.459	0.631	0.598	0.502																																																																																				
404	0.537	0.536	0.609	0.557	0.533	0.576	0.523	0.535	0.458	0.629	0.596	0.501																																																																																				
405	0.536	0.535	0.608	0.556	0.532	0.575	0.522	0.534	0.457	0.628	0.595	0.499																																																																																				
406	0.534	0.534	0.607	0.554	0.531	0.573	0.521	0.533	0.456	0.626	0.594	0.498																																																																																				
407	0.533	0.533	0.605	0.553	0.529	0.572	0.519	0.531	0.455	0.625	0.592	0.497																																																																																				
408	0.532	0.531	0.604	0.552	0.528	0.570	0.518	0.530	0.454	0.623	0.591	0.496																																																																																				
409	0.531	0.530	0.603	0.551	0.527	0.569	0.517	0.529	0.453	0.622	0.590	0.495																																																																																				
410	0.530	0.529	0.601	0.549	0.526	0.567	0.515	0.527	0.452	0.620	0.588	0.493																																																																																				
411	0.528	0.528	0.600	0.548	0.524	0.566	0.514	0.526	0.451	0.619	0.587	0.492																																																																																				
412	0.527	0.527	0.598	0.547	0.523	0.565	0.513	0.525	0.450	0.617	0.585	0.491																																																																																				
413	0.526	0.525	0.597	0.545	0.522	0.563	0.512	0.523	0.449	0.616	0.584	0.490																																																																																				
414	0.525	0.524	0.596	0.544	0.521	0.562	0.511	0.522	0.448	0.614	0.582	0.489																																																																																				
415	0.524	0.523	0.594	0.542	0.519	0.561	0.509	0.521	0.447	0.613	0.581	0.488																																																																																				
416	0.523	0.522	0.593	0.541	0.518	0.559	0.508	0.520	0.446	0.611	0.580	0.487																																																																																				
417	0.521	0.521	0.592	0.540	0.517	0.558	0.507	0.519	0.445	0.610	0.578	0.485																																																																																				
418	0.520	0.520	0.590	0.539	0.516	0.557	0.506	0.517	0.444	0.609	0.577	0.484																																																																																				
419	0.519	0.519	0.589	0.537	0.514	0.555	0.505	0.516	0.443	0.607	0.576	0.483																																																																																				
420	0.518	0.518	0.588	0.536	0.513	0.554	0.503	0.515	0.442	0.606	0.574	0.482																																																																																				
421	0.517	0.516	0.587	0.535	0.512	0.553	0.502	0.514	0.441	0.605	0.573	0.481																																																																																				
422	0.516	0.516	0.586	0.534	0.511	0.552	0.501	0.513	0.440	0.604	0.572	0.480																																																																																				
423	0.515	0.515	0.584	0.533	0.510	0.551	0.500	0.512	0.439	0.603	0.571	0.480																																																																																				
424	0.514	0.514	0.583	0.532	0.509	0.550	0.499	0.511	0.438	0.602	0.570	0.479																																																																																				
425	0.513	0.513	0.582	0.531	0.508	0.549	0.498	0.510	0.438	0.600	0.569	0.478																																																																																				
426	0.513	0.512	0.581	0.530	0.507	0.547	0.497	0.509	0.437	0.599	0.568	0.477																																																																																				
427	0.512	0.511	0.580	0.529	0.506	0.546	0.497	0.508	0.436	0.598	0.567	0.476																																																																																				
428	0.511	0.510	0.579	0.528	0.505	0.546	0.496	0.507	0.435	0.597	0.566	0.475																																																																																				
429	0.510	0.509	0.578	0.527	0.504	0.544	0.494	0.506	0.434	0.596	0.565	0.474																																																																																				
430	0.509	0.508	0.577	0.526	0.503	0.543	0.493	0.505	0.433	0.595	0.564	0.473																																																																																				
431	0.508	0.507	0.576	0.525	0.502	0.542	0.493	0.504	0.433	0.594	0.563	0.472																																																																																				
432	0.507	0.506	0.575	0.523	0.501	0.541	0.492	0.503	0.432	0.593	0.561	0.471																																																																																				
433	0.506	0.506	0.573	0.522	0.500	0.540	0.491	0.502	0.431	0.591	0.560	0.471																																																																																				
434	0.505	0.505	0.572	0.521	0.499	0.539	0.490	0.501	0.430	0.590	0.559	0.470																																																																																				
435	0.504	0.504	0.571	0.520	0.498	0.538	0.489	0.500	0.429	0.590	0.558	0.469																																																																																				
436	0.504	0.503	0.570	0.519	0.497	0.537	0.488	0.499	0.429	0.588	0.557	0.468																																																																																				
437	0.503	0.502	0.569	0.518	0.496	0.536	0.487	0.498	0.428	0.587	0.556	0.467																																																																																				
438	0.502	0.501	0.568	0.517	0.495	0.535	0.486	0.497	0.427	0.586	0.555	0.467																																																																																				
439	0.501	0.501	0.567	0.517	0.495	0.534	0.485	0.497	0.426	0.585	0.555	0.466																																																																																				
440	0.500	0.500	0.566	0.516	0.494	0.533	0.484	0.496	0.426	0.584	0.554	0.465																																																																																				
441	0.500	0.499	0.565	0.515	0.493	0.532	0.484	0.495	0.425	0.583	0.553	0.465																																																																																				
442	0.499	0.498	0.564	0.514	0.492	0.531	0.483	0.494	0.424	0.582	0.552	0.464																																																																																				
443	0.498	0.498	0.563	0.513	0.491	0.530	0.482	0.493	0.424	0.582	0.551	0.463																																																																																				
444	0.498	0.497	0.562	0.512	0.490	0.529	0.481	0.493	0.423	0.581	0.550	0.463																																																																																				
445	0.497	0.496	0.561	0.511	0.489	0.528	0.480	0.492	0.423	0.580	0.550	0.462																																																																																				
446	0.496	0.496	0.560	0.510	0.489	0.528	0.480	0.491	0.422	0.579	0.549	0.461																																																																																				
447	0.496	0.495	0.559	0.510	0.488	0.527	0.479	0.490	0.421	0.578	0.548	0.461																																																																																				
448	0.495	0.495	0.559	0.509	0.487	0.526	0.478	0.490	0.421	0.577	0.547	0.460																																																																																				
449	0.495	0.494	0.558	0.508	0.487	0.525	0.478	0.489	0.420	0.577	0.547	0.460																																																																																				
450	0.494	0.494	0.557	0.507	0.486	0.525	0.477	0.488	0.420	0.576	0.546	0.459																																																																																				
451	0.494	0.493	0.556	0.507	0.485	0.524	0.476	0.488	0.419	0.575	0.545	0.459																																																																																				
452	0.493	0.493	0.555	0.506	0.484	0.523	0.476	0.487	0.419	0.574	0.545	0.458																																																																																				
453	0.493	0.492	0.555	0.505	0.484	0.522	0.475	0.486	0.418	0.574	0.544	0.458																																																																																				
454	0.492	0.492	0.554	0.505	0.483	0.522	0.475	0.486	0.418	0.573	0.544	0.457																																																																																				
455	0.492	0.492	0.553	0.504	0.483	0.521	0.474	0.485	0.418	0.573	0.543	0.457																																																																																				
456	0.492	0.491	0.553	0.503	0.482	0.521	0.473	0.485	0.417	0.572	0.543	0.456																																																																																				
457	0.491	0.491	0.552	0.503	0.481	0.520	0.473	0.484	0.417	0.572	0.542	0.456																																																																																				
458	0.491	0.491	0.552	0.502	0.481	0.520	0.472	0.484	0.417	0.571	0.542	0.456																																																																																				
459	0.491	0.491	0.551	0.502	0.481	0.519	0.472	0.483	0.416	0.571	0.541	0.456																																																																																				
460	0.491	0.491	0.551	0.502	0.480	0.519	0.472	0.483	0.416	0.571	0.541	0.455																																																																																				
461	0.491	0.491	0.551	0.501	0.480	0.519	0.472	0.483	0.416	0.570	0.541	0.455																																																																																				
462	0.491	0.491	0.550	0.501	0.480	0.518	0.471	0.483	0.416	0.570	0.541	0.455																																																																																				
463	0.491	0.491	0.550	0.501	0.480	0.518	0.471	0.483	0.416	0.570	0.541	0.455																																																																																				
464	0.491	0.491	0.550	0.501	0.479	0.518	0.471	0.482	0.416	0.570	0.541	0.455																																																																																				
465	0.491	0.491	0.550	0.501	0.479	0.518	0.471	0.482	0.416	0.570	0.541	0.455																																																																																				
466	0.492	0.492	0.550	0.501	0.479	0.518	0.471	0.482	0.416	0.570	0.541	0.456																																																																																				
467	0.492	0.492	0.550	0.501	0.479	0.518	0.471	0.483	0.416	0.571	0.541	0.456																																																																																				
468	0.492	0.493	0.550	0.501	0.479	0.518	0.471	0.483	0.416	0.571	0.542	0.456																																																																																				
469	0.493	0.493	0.551	0.501	0.479	0.518	0.472	0.483	0.416	0.571	0.542	0.457																																																																																				
470	0.494	0.494	0.551	0.501	0.480	0.519	0.472	0.483	0.417	0.572	0.543	0.457																																																																																				
471	0.494	0.494	0.551	0.501	0.480	0.519	0.472	0.484	0.417	0.572	0.543	0.458																																																																																				
472	0.495	0.495	0.552	0.502	0.480	0.519	0.473	0.484	0.418	0.573	0.544	0.458																																																																																				
473	0.496	0.496	0.553	0.502	0.481	0.520	0.473	0.485	0.418	0.574	0.545	0.459																																																																																				
474	0.497	0.497	0.553	0.503	0.482	0.521	0.474	0.486	0.419	0.575	0.546	0.460																																																																																				
475	0.498	0.499	0.554	0.504	0.482	0.522	0.475	0.487	0.420	0.576	0.547	0.461																																																																																				
476	0.499	0.500	0.555	0.505	0.483	0.523	0.476	0.487	0.421	0.578	0.548	0.462																																																																																				
477	0.501	0.502	0.557	0.506	0.484	0.524	0.477	0.489	0.422	0.579	0.549	0.463																																																																																				
478	0.503	0.504	0.558	0.507	0.486	0.525	0.478	0.490	0.423	0.581	0.551	0.465																																																																																				
479	0.505	0.506	0.560	0.509	0.487	0.527	0.479	0.492	0.424	0.583	0.553	0.466																																																																																				
480	0.507	0.508	0.562	0.511	0.489	0.529	0.481	0.493	0.426	0.585	0.555	0.468																																																																																				
481	0.510	0.511	0.564	0.513	0.491	0.531	0.483	0.496	0.428	0.588	0.558	0.471																																																																																				
482	0.513	0.514	0.567	0.515	0.493	0.533	0.485	0.498	0.430	0.591	0.560	0.473																																																																																				
483	0.515	0.517	0.569	0.517	0.495	0.535	0.487	0.500	0.432	0.594	0.563	0.475																																																																																				
484	0.518	0.519	0.571	0.519	0.497	0.537	0.489	0.502	0.433	0.596	0.565	0.477																																																																																				
485	0.520	0.522	0.574	0.521	0.499	0.540	0.491	0.504	0.435	0.599	0.567	0.479																																																																																				
486	0.523	0.525	0.577	0.524	0.501	0.542	0.493	0.506	0.437	0.602	0.571	0.482																																																																																				
487	0.528	0.529	0.581	0.527	0.505	0.546	0.497	0.510	0.440	0.606	0.575	0.485																																																																																				
488	0.532	0.533	0.585	0.531	0.508	0.549	0.500	0.513	0.443	0.610	0.578	0.488																																																																																				
489	0.535	0.537	0.588	0.534	0.510	0.552	0.502	0.516	0.446	0.614	0.582	0.491																																																																																				
490	0.540	0.542	0.592	0.538	0.514	0.557	0.506	0.520	0.449	0.619	0.586	0.495																																																																																				
491	0.546	0.548	0.598	0.543	0.519	0.562	0.510	0.524	0.453	0.624	0.591	0.499																																																																																				
492	0.550	0.553	0.602	0.546	0.522	0.565	0.514	0.528	0.456	0.628	0.595	0.503																																																																																				
493	0.555	0.558	0.606	0.550	0.526	0.569	0.517	0.531	0.459	0.633	0.600	0.507																																																																																				
494	0.561	0.564	0.611	0.555	0.530	0.574	0.521	0.535	0.463	0.638	0.605	0.511																																																																																				
495	0.568	0.571	0.618	0.560	0.535	0.579	0.526	0.541	0.468	0.645	0.611	0.516																																																																																				
496	0.576	0.579	0.624	0.566	0.541	0.585	0.532	0.546	0.472	0.652	0.617	0.522																																																																																				
497	0.583	0.587	0.631	0.572	0.546	0.591	0.537	0.552	0.477	0.658	0.623	0.527																																																																																				
498	0.588	0.593	0.635	0.576	0.550	0.595	0.541	0.555	0.480	0.663	0.628	0.531																																																																																				
499	0.595	0.599	0.641	0.581	0.554	0.600	0.545	0.560	0.484	0.668	0.632	0.535																																																																																				
500	0.601	0.606	0.646	0.585	0.559	0.605	0.549	0.564	0.488	0.674	0.638	0.539																																																																																				
501	0.608	0.613	0.652	0.591	0.563	0.610	0.553	0.569	0.492	0.680	0.643	0.544																																																																																				
502	0.615	0.621	0.658	0.596	0.568	0.615	0.558	0.574	0.496	0.686	0.649	0.549																																																																																				
503	0.622	0.628	0.663	0.600	0.572	0.619	0.562	0.578	0.500	0.691	0.654	0.553																																																																																				
504	0.629	0.636	0.669	0.605	0.577	0.625	0.567	0.583	0.504	0.697	0.659	0.558																																																																																				
505	0.636	0.643	0.674	0.609	0.581	0.629	0.570	0.587	0.507	0.702	0.664	0.562																																																																																				
506	0.643	0.650	0.679	0.614	0.585	0.633	0.574	0.590	0.511	0.707	0.669	0.566																																																																																				
507	0.649	0.657	0.684	0.617	0.588	0.636	0.577	0.594	0.514	0.712	0.673	0.570																																																																																				
508	0.655	0.664	0.688	0.621	0.591	0.640	0.580	0.597	0.517	0.716	0.677	0.573																																																																																				
509	0.661	0.670	0.691	0.624	0.594	0.643	0.583	0.600	0.520	0.720	0.680	0.577																																																																																				
510	0.667	0.677	0.695	0.627	0.597	0.645	0.586	0.602	0.522	0.724	0.684	0.580																																																																																				
511	0.672	0.682	0.697	0.629	0.598	0.647	0.588	0.604	0.524	0.726	0.687	0.582																																																																																				
512	0.676	0.687	0.700	0.630	0.600	0.649	0.589	0.606	0.525	0.729	0.689	0.585																																																																																				
513	0.680	0.691	0.701	0.631	0.601	0.650	0.590	0.607	0.527	0.731	0.691	0.587																																																																																				
514	0.683	0.695	0.702	0.632	0.602	0.651	0.591	0.608	0.528	0.733	0.692	0.588																																																																																				
515	0.686	0.699	0.703	0.632	0.602	0.651	0.592	0.609	0.528	0.734	0.693	0.589																																																																																				
516	0.689	0.702	0.703	0.632	0.602	0.651	0.591	0.609	0.529	0.734	0.694	0.590																																																																																				
517	0.690	0.704	0.703	0.632	0.601	0.651	0.591	0.608	0.529	0.735	0.694	0.591																																																																																				
518	0.692	0.706	0.702	0.631	0.600	0.650	0.591	0.608	0.529	0.735	0.694	0.591																																																																																				
519	0.693	0.707	0.701	0.630	0.599	0.649	0.590	0.607	0.528	0.734	0.694	0.591																																																																																				
520	0.693	0.708	0.700	0.629	0.598	0.647	0.589	0.606	0.527	0.733	0.693	0.591																																																																																				
521	0.693	0.709	0.698	0.627	0.596	0.646	0.587	0.604	0.527	0.733	0.692	0.590																																																																																				
522	0.693	0.709	0.696	0.625	0.594	0.644	0.586	0.603	0.525	0.731	0.690	0.589																																																																																				
523	0.692	0.708	0.693	0.622	0.592	0.641	0.583	0.601	0.524	0.729	0.688	0.588																																																																																				
524	0.690	0.707	0.689	0.619	0.589	0.638	0.581	0.598	0.522	0.727	0.686	0.587																																																																																				
525	0.689	0.706	0.686	0.616	0.586	0.635	0.579	0.596	0.520	0.724	0.684	0.585																																																																																				
526	0.687	0.704	0.682	0.612	0.583	0.632	0.576	0.593	0.518	0.722	0.681	0.583																																																																																				
527	0.684	0.702	0.678	0.609	0.579	0.628	0.573	0.590	0.516	0.718	0.678	0.581																																																																																				
528	0.682	0.701	0.675	0.606	0.577	0.625	0.570	0.587	0.514	0.716	0.675	0.579																																																																																				
529	0.680	0.699	0.671	0.603	0.574	0.622	0.568	0.585	0.512	0.713	0.673	0.577																																																																																				
530	0.678	0.697	0.668	0.600	0.571	0.619	0.565	0.582	0.509	0.710	0.670	0.575																																																																																				
531	0.675	0.694	0.664	0.596	0.567	0.616	0.562	0.578	0.507	0.707	0.667	0.573																																																																																				
532	0.671	0.691	0.658	0.591	0.563	0.611	0.557	0.574	0.503	0.702	0.662	0.569																																																																																				
533	0.668	0.688	0.653	0.586	0.558	0.606	0.554	0.570	0.500	0.698	0.658	0.566																																																																																				
534	0.664	0.685	0.649	0.582	0.554	0.602	0.550	0.566	0.497	0.694	0.655	0.563																																																																																				
535	0.661	0.682	0.643	0.577	0.550	0.597	0.546	0.562	0.494	0.689	0.650	0.560																																																																																				
536	0.657	0.678	0.638	0.572	0.545	0.593	0.542	0.558	0.491	0.684	0.646	0.556																																																																																				
537	0.653	0.675	0.632	0.568	0.541	0.587	0.538	0.553	0.487	0.679	0.641	0.552																																																																																				
538	0.649	0.671	0.626	0.562	0.536	0.582	0.533	0.548	0.483	0.674	0.636	0.548																																																																																				
539	0.646	0.668	0.621	0.557	0.531	0.577	0.528	0.544	0.479	0.669	0.631	0.544																																																																																				
540	0.641	0.664	0.614	0.551	0.525	0.571	0.523	0.538	0.475	0.662	0.625	0.539																																																																																				
541	0.638	0.661	0.609	0.546	0.521	0.566	0.519	0.534	0.471	0.657	0.620	0.536																																																																																				
542	0.634	0.658	0.604	0.541	0.516	0.561	0.514	0.529	0.467	0.652	0.615	0.532																																																																																				
543	0.631	0.655	0.599	0.537	0.512	0.556	0.510	0.525	0.463	0.646	0.610	0.528																																																																																				
544	0.627	0.652	0.592	0.531	0.506	0.551	0.505	0.519	0.459	0.640	0.605	0.523																																																																																				
545	0.623	0.649	0.585	0.525	0.500	0.544	0.499	0.513	0.454	0.633	0.598	0.518																																																																																				
546	0.619	0.645	0.579	0.519	0.495	0.538	0.493	0.508	0.449	0.626	0.591	0.512																																																																																				
547	0.616	0.642	0.572	0.513	0.489	0.532	0.488	0.502	0.444	0.620	0.585	0.507																																																																																				
548	0.612	0.639	0.566	0.507	0.483	0.526	0.483	0.496	0.439	0.612	0.579	0.502																																																																																				
549	0.609	0.637	0.560	0.501	0.478	0.520	0.477	0.490	0.435	0.606	0.572	0.497																																																																																				
550	0.605	0.634	0.552	0.495	0.472	0.513	0.471	0.484	0.429	0.598	0.565	0.490																																																																																				
551	0.601	0.631	0.546	0.489	0.466	0.507	0.465	0.478	0.424	0.591	0.558	0.485																																																																																				
552	0.598	0.628	0.539	0.482	0.460	0.500	0.459	0.471	0.418	0.582	0.550	0.478																																																																																				
553	0.594	0.625	0.532	0.476	0.454	0.493	0.453	0.465	0.413	0.575	0.543	0.472																																																																																				
554	0.591	0.623	0.525	0.470	0.448	0.486	0.447	0.459	0.407	0.567	0.536	0.466																																																																																				
555	0.588	0.621	0.519	0.464	0.442	0.480	0.441	0.453	0.402	0.559	0.529	0.460																																																																																				
556	0.585	0.618	0.512	0.457	0.436	0.473	0.435	0.446	0.396	0.551	0.521	0.453																																																																																				
557	0.582	0.617	0.506	0.452	0.430	0.467	0.429	0.440	0.391	0.543	0.513	0.447																																																																																				
558	0.579	0.614	0.499	0.445	0.423	0.460	0.422	0.432	0.384	0.534	0.505	0.440																																																																																				
559	0.577	0.613	0.492	0.439	0.417	0.453	0.416	0.426	0.378	0.525	0.497	0.432																																																																																				
560	0.574	0.611	0.485	0.432	0.411	0.446	0.409	0.419	0.372	0.516	0.489	0.425																																																																																				
561	0.572	0.610	0.479	0.426	0.405	0.439	0.403	0.412	0.366	0.508	0.481	0.419																																																																																				
562	0.570	0.609	0.473	0.421	0.400	0.433	0.398	0.406	0.361	0.500	0.474	0.412																																																																																				
563	0.569	0.608	0.468	0.416	0.396	0.428	0.393	0.402	0.357	0.494	0.468	0.407																																																																																				
564	0.568	0.608	0.462	0.411	0.390	0.422	0.387	0.395	0.351	0.486	0.460	0.400																																																																																				
565	0.566	0.607	0.456	0.405	0.384	0.415	0.381	0.389	0.345	0.478	0.452	0.393																																																																																				
566	0.565	0.607	0.451	0.400	0.379	0.410	0.376	0.383	0.340	0.470	0.445	0.387																																																																																				
567	0.565	0.607	0.446	0.395	0.374	0.404	0.371	0.377	0.335	0.463	0.438	0.381																																																																																				
568	0.564	0.608	0.441	0.390	0.370	0.400	0.366	0.372	0.330	0.456	0.432	0.375																																																																																				
569	0.564	0.609	0.436	0.386	0.365	0.394	0.360	0.366	0.325	0.448	0.425	0.369																																																																																				
570	0.564	0.610	0.431	0.381	0.360	0.389	0.356	0.361	0.321	0.441	0.418	0.363																																																																																				
571	0.565	0.611	0.426	0.376	0.355	0.383	0.350	0.355	0.315	0.434	0.411	0.356																																																																																				
572	0.565	0.613	0.422	0.372	0.351	0.378	0.345	0.350	0.310	0.426	0.404	0.351																																																																																				
573	0.566	0.614	0.418	0.368	0.347	0.373	0.341	0.345	0.306	0.420	0.398	0.345																																																																																				
574	0.567	0.617	0.414	0.364	0.343	0.368	0.337	0.340	0.302	0.414	0.393	0.340																																																																																				
575	0.569	0.619	0.410	0.360	0.339	0.364	0.332	0.335	0.297	0.407	0.386	0.335																																																																																				
576	0.570	0.621	0.407	0.357	0.336	0.360	0.329	0.331	0.293	0.401	0.381	0.330																																																																																				
577	0.572	0.624	0.403	0.353	0.332	0.355	0.325	0.327	0.290	0.395	0.376	0.325																																																																																				
578	0.575	0.627	0.399	0.349	0.328	0.351	0.320	0.322	0.285	0.389	0.370	0.319																																																																																				
579	0.577	0.631	0.396	0.346	0.324	0.346	0.316	0.317	0.281	0.382	0.363	0.314																																																																																				
580	0.580	0.635	0.392	0.342	0.321	0.342	0.312	0.313	0.277	0.376	0.358	0.309																																																																																				
581	0.583	0.639	0.389	0.339	0.317	0.339	0.308	0.308	0.273	0.370	0.352	0.304																																																																																				
582	0.587	0.643	0.386	0.336	0.314	0.334	0.304	0.304	0.269	0.364	0.347	0.299																																																																																				
583	0.591	0.648	0.383	0.332	0.310	0.330	0.300	0.300	0.265	0.359	0.342	0.294																																																																																				
584	0.595	0.653	0.380	0.329	0.307	0.326	0.296	0.295	0.261	0.353	0.336	0.289																																																																																				
585	0.599	0.658	0.377	0.326	0.304	0.322	0.292	0.291	0.257	0.347	0.331	0.285																																																																																				
586	0.604	0.664	0.374	0.323	0.300	0.318	0.288	0.287	0.254	0.342	0.326	0.280																																																																																				
587	0.609	0.670	0.371	0.319	0.297	0.314	0.285	0.283	0.250	0.336	0.321	0.276																																																																																				
588	0.614	0.675	0.368	0.317	0.294	0.310	0.281	0.279	0.247	0.331	0.316	0.271																																																																																				
589	0.619	0.681	0.366	0.314	0.291	0.307	0.278	0.276	0.243	0.326	0.312	0.267																																																																																				
590	0.625	0.687	0.364	0.311	0.288	0.304	0.275	0.272	0.240	0.322	0.307	0.263																																																																																				
591	0.631	0.694	0.361	0.308	0.285	0.300	0.271	0.269	0.237	0.317	0.303	0.259																																																																																				
592	0.637	0.700	0.359	0.306	0.283	0.297	0.269	0.266	0.234	0.313	0.299	0.256																																																																																				
593	0.643	0.706	0.357	0.304	0.280	0.294	0.266	0.262	0.231	0.308	0.295	0.252																																																																																				
594	0.650	0.713	0.355	0.301	0.278	0.291	0.262	0.259	0.228	0.303	0.290	0.248																																																																																				
595	0.658	0.721	0.353	0.299	0.275	0.287	0.259	0.255	0.225	0.299	0.286	0.244																																																																																				
596	0.665	0.728	0.352	0.297	0.273	0.285	0.257	0.253	0.222	0.295	0.282	0.241																																																																																				
597	0.672	0.735	0.350	0.295	0.271	0.282	0.254	0.250	0.220	0.291	0.279	0.237																																																																																				
598	0.679	0.742	0.349	0.293	0.269	0.280	0.252	0.247	0.217	0.288	0.276	0.234																																																																																				
599	0.687	0.749	0.348	0.291	0.267	0.277	0.249	0.245	0.215	0.284	0.272	0.231																																																																																				
600	0.696	0.757	0.347	0.289	0.264	0.275	0.247	0.242	0.212	0.280	0.269	0.228																																																																																				
601	0.705	0.766	0.345	0.288	0.262	0.272	0.244	0.239	0.209	0.276	0.265	0.224																																																																																				
602	0.715	0.775	0.345	0.286	0.260	0.269	0.241	0.236	0.206	0.272	0.261	0.221																																																																																				
603	0.723	0.782	0.344	0.285	0.259	0.267	0.239	0.234	0.204	0.269	0.258	0.218																																																																																				
604	0.732	0.790	0.344	0.283	0.257	0.265	0.237	0.232	0.203	0.266	0.255	0.216																																																																																				
605	0.740	0.797	0.343	0.282	0.256	0.264	0.236	0.230	0.201	0.263	0.253	0.213																																																																																				
606	0.749	0.804	0.343	0.282	0.254	0.262	0.234	0.228	0.199	0.260	0.250	0.211																																																																																				
607	0.757	0.811	0.343	0.281	0.253	0.260	0.232	0.226	0.197	0.258	0.248	0.209																																																																																				
608	0.768	0.820	0.344	0.280	0.252	0.259	0.230	0.224	0.195	0.254	0.245	0.206																																																																																				
609	0.777	0.828	0.344	0.279	0.251	0.257	0.229	0.222	0.193	0.252	0.243	0.204																																																																																				
610	0.785	0.834	0.344	0.279	0.250	0.256	0.227	0.221	0.192	0.250	0.240	0.202																																																																																				
611	0.794	0.841	0.345	0.279	0.249	0.254	0.226	0.219	0.191	0.247	0.238	0.200																																																																																				
612	0.803	0.848	0.346	0.278	0.248	0.253	0.225	0.218	0.189	0.245	0.236	0.198																																																																																				
613	0.813	0.855	0.347	0.278	0.248	0.252	0.223	0.216	0.187	0.243	0.234	0.196																																																																																				
614	0.823	0.862	0.348	0.278	0.247	0.251	0.222	0.214	0.186	0.240	0.232	0.193																																																																																				
615	0.832	0.868	0.350	0.278	0.247	0.249	0.221	0.213	0.184	0.238	0.230	0.192																																																																																				
616	0.842	0.874	0.351	0.278	0.246	0.249	0.220	0.212	0.183	0.236	0.228	0.190																																																																																				
617	0.851	0.880	0.353	0.279	0.246	0.248	0.218	0.211	0.182	0.234	0.226	0.188																																																																																				
618	0.859	0.885	0.355	0.279	0.246	0.247	0.218	0.210	0.181	0.233	0.225	0.186																																																																																				
619	0.867	0.890	0.358	0.280	0.245	0.247	0.217	0.209	0.180	0.231	0.223	0.185																																																																																				
620	0.877	0.895	0.360	0.280	0.245	0.246	0.216	0.207	0.178	0.229	0.222	0.183																																																																																				
621	0.885	0.899	0.363	0.281	0.245	0.245	0.215	0.206	0.177	0.228	0.220	0.181																																																																																				
622	0.893	0.903	0.366	0.282	0.245	0.245	0.215	0.205	0.176	0.226	0.218	0.180																																																																																				
623	0.901	0.907	0.369	0.283	0.246	0.245	0.214	0.205	0.175	0.225	0.217	0.179																																																																																				
624	0.909	0.910	0.372	0.285	0.246	0.245	0.214	0.204	0.175	0.223	0.216	0.177																																																																																				
625	0.916	0.913	0.376	0.286	0.247	0.244	0.213	0.203	0.174	0.222	0.215	0.176																																																																																				
626	0.922	0.915	0.380	0.288	0.247	0.244	0.213	0.203	0.173	0.221	0.214	0.175																																																																																				
627	0.928	0.917	0.384	0.289	0.248	0.245	0.213	0.202	0.172	0.219	0.213	0.174																																																																																				
628	0.934	0.918	0.388	0.291	0.249	0.245	0.212	0.202	0.172	0.218	0.212	0.173																																																																																				
629	0.940	0.919	0.392	0.293	0.249	0.245	0.212	0.201	0.171	0.217	0.211	0.172																																																																																				
630	0.945	0.919	0.397	0.295	0.250	0.245	0.212	0.201	0.171	0.216	0.210	0.171																																																																																				
631	0.949	0.919	0.401	0.297	0.251	0.245	0.212	0.201	0.170	0.215	0.209	0.170																																																																																				
632	0.953	0.919	0.406	0.299	0.252	0.246	0.212	0.200	0.170	0.214	0.208	0.169																																																																																				
633	0.957	0.918	0.411	0.302	0.254	0.246	0.212	0.200	0.169	0.214	0.207	0.168																																																																																				
634	0.960	0.917	0.417	0.305	0.255	0.247	0.212	0.200	0.169	0.213	0.207	0.167																																																																																				
635	0.964	0.915	0.423	0.308	0.257	0.248	0.212	0.200	0.169	0.212	0.206	0.166																																																																																				
636	0.966	0.913	0.429	0.310	0.258	0.248	0.213	0.200	0.168	0.212	0.206	0.166																																																																																				
637	0.968	0.911	0.435	0.313	0.259	0.249	0.213	0.200	0.168	0.211	0.205	0.165																																																																																				
638	0.970	0.908	0.442	0.317	0.261	0.250	0.213	0.200	0.168	0.210	0.204	0.164																																																																																				
639	0.971	0.905	0.449	0.321	0.263	0.251	0.214	0.200	0.168	0.210	0.204	0.164																																																																																				
640	0.972	0.901	0.457	0.324	0.265	0.252	0.214	0.200	0.168	0.209	0.204	0.163																																																																																				
641	0.973	0.897	0.464	0.328	0.267	0.254	0.215	0.200	0.167	0.209	0.203	0.162																																																																																				
642	0.973	0.893	0.472	0.332	0.270	0.255	0.215	0.201	0.167	0.209	0.203	0.162																																																																																				
643	0.973	0.888	0.480	0.336	0.272	0.256	0.216	0.201	0.167	0.208	0.203	0.161																																																																																				
644	0.972	0.884	0.489	0.341	0.274	0.258	0.217	0.201	0.167	0.208	0.203	0.161																																																																																				
645	0.971	0.879	0.498	0.346	0.277	0.259	0.218	0.202	0.168	0.208	0.203	0.160																																																																																				
646	0.969	0.874	0.507	0.350	0.280	0.261	0.218	0.202	0.168	0.208	0.202	0.160																																																																																				
647	0.967	0.868	0.517	0.356	0.283	0.263	0.220	0.203	0.168	0.208	0.202	0.160																																																																																				
648	0.965	0.863	0.527	0.361	0.286	0.265	0.221	0.203	0.168	0.208	0.202	0.159																																																																																				
649	0.963	0.856	0.537	0.366	0.289	0.267	0.222	0.204	0.168	0.208	0.202	0.159																																																																																				
650	0.960	0.850	0.548	0.372	0.293	0.269	0.223	0.205	0.169	0.208	0.202	0.159																																																																																				
651	0.957	0.844	0.559	0.378	0.296	0.271	0.224	0.206	0.169	0.208	0.202	0.158																																																																																				
652	0.954	0.838	0.569	0.384	0.299	0.274	0.226	0.206	0.169	0.208	0.203	0.158																																																																																				
653	0.950	0.831	0.581	0.391	0.303	0.276	0.227	0.207	0.169	0.208	0.203	0.158																																																																																				
654	0.946	0.824	0.592	0.397	0.307	0.278	0.228	0.208	0.170	0.208	0.203	0.158																																																																																				
655	0.941	0.817	0.604	0.404	0.311	0.281	0.230	0.209	0.170	0.209	0.203	0.158																																																																																				
656	0.937	0.809	0.617	0.412	0.316	0.284	0.232	0.210	0.171	0.209	0.204	0.158																																																																																				
657	0.931	0.802	0.631	0.419	0.320	0.287	0.234	0.212	0.171	0.209	0.204	0.158																																																																																				
658	0.926	0.794	0.644	0.427	0.325	0.290	0.235	0.213	0.172	0.210	0.205	0.158																																																																																				
659	0.921	0.787	0.658	0.435	0.330	0.294	0.237	0.214	0.173	0.210	0.205	0.158																																																																																				
660	0.916	0.780	0.671	0.443	0.334	0.297	0.239	0.215	0.173	0.211	0.206	0.158																																																																																				
661	0.909	0.771	0.686	0.452	0.340	0.300	0.241	0.217	0.174	0.212	0.206	0.158																																																																																				
662	0.903	0.763	0.701	0.461	0.345	0.304	0.244	0.219	0.175	0.212	0.207	0.158																																																																																				
663	0.897	0.756	0.715	0.469	0.351	0.308	0.246	0.220	0.176	0.213	0.208	0.158																																																																																				
664	0.890	0.747	0.730	0.479	0.357	0.312	0.248	0.222	0.177	0.214	0.208	0.158																																																																																				
665	0.883	0.739	0.745	0.488	0.363	0.316	0.251	0.224	0.177	0.215	0.209	0.158																																																																																				
666	0.876	0.731	0.760	0.498	0.368	0.320	0.254	0.225	0.178	0.215	0.210	0.158																																																																																				
667	0.869	0.722	0.777	0.509	0.376	0.325	0.256	0.228	0.179	0.216	0.211	0.159																																																																																				
668	0.861	0.713	0.794	0.520	0.383	0.330	0.260	0.230	0.181	0.217	0.212	0.159																																																																																				
669	0.852	0.704	0.811	0.531	0.390	0.335	0.263	0.232	0.182	0.219	0.213	0.159																																																																																				
670	0.844	0.696	0.828	0.542	0.397	0.340	0.266	0.234	0.183	0.220	0.214	0.160																																																																																				
671	0.836	0.686	0.846	0.553	0.404	0.345	0.269	0.236	0.184	0.221	0.215	0.160																																																																																				
672	0.828	0.678	0.863	0.565	0.412	0.350	0.272	0.239	0.186	0.222	0.216	0.160																																																																																				
673	0.819	0.669	0.881	0.577	0.420	0.356	0.276	0.241	0.187	0.224	0.218	0.161																																																																																				
674	0.810	0.659	0.900	0.591	0.429	0.362	0.280	0.244	0.189	0.225	0.219	0.161																																																																																				
675	0.801	0.651	0.917	0.603	0.437	0.368	0.284	0.247	0.190	0.226	0.221	0.162																																																																																				
676	0.791	0.641	0.936	0.616	0.446	0.375	0.288	0.250	0.192	0.228	0.222	0.162																																																																																				
677	0.782	0.633	0.955	0.630	0.456	0.382	0.292	0.253	0.194	0.230	0.224	0.163																																																																																				
678	0.773	0.624	0.973	0.643	0.465	0.388	0.296	0.256	0.195	0.231	0.225	0.163																																																																																				
679	0.764	0.615	0.992	0.657	0.474	0.396	0.301	0.259	0.197	0.233	0.227	0.164																																																																																				
680	0.754	0.606	1.012	0.672	0.485	0.403	0.306	0.263	0.199	0.235	0.229	0.165																																																																																				
681	0.744	0.597	1.031	0.687	0.495	0.411	0.311	0.267	0.201	0.237	0.231	0.166																																																																																				
682	0.734	0.588	1.050	0.701	0.506	0.419	0.316	0.270	0.203	0.239	0.233	0.166																																																																																				
683	0.725	0.580	1.069	0.716	0.516	0.427	0.321	0.274	0.205	0.241	0.235	0.167																																																																																				
684	0.716	0.571	1.088	0.731	0.527	0.435	0.327	0.278	0.208	0.244	0.237	0.168																																																																																				
685	0.705	0.562	1.108	0.748	0.539	0.444	0.332	0.282	0.210	0.246	0.239	0.169																																																																																				
686	0.695	0.553	1.129	0.765	0.551	0.454	0.339	0.287	0.213	0.249	0.242	0.170																																																																																				
687	0.684	0.544	1.150	0.782	0.565	0.464	0.345	0.292	0.216	0.252	0.245	0.171																																																																																				
688	0.675	0.535	1.170	0.799	0.577	0.474	0.352	0.297	0.219	0.255	0.247	0.172																																																																																				
689	0.665	0.527	1.188	0.816	0.590	0.484	0.359	0.302	0.222	0.257	0.250	0.173																																																																																				
690	0.655	0.519	1.207	0.832	0.603	0.494	0.365	0.307	0.225	0.260	0.253	0.174																																																																																				
691	0.646	0.511	1.226	0.849	0.615	0.503	0.372	0.312	0.228	0.263	0.256	0.176																																																																																				
692	0.637	0.503	1.244	0.866	0.629	0.514	0.379	0.317	0.231	0.267	0.259	0.177																																																																																				
693	0.627	0.495	1.263	0.884	0.643	0.526	0.387	0.323	0.234	0.270	0.262	0.178																																																																																				
694	0.618	0.487	1.281	0.901	0.657	0.537	0.395	0.329	0.238	0.273	0.265	0.180																																																																																				
695	0.609	0.480	1.300	0.919	0.671	0.549	0.403	0.335	0.241	0.277	0.269	0.181																																																																																				
696	0.599	0.472	1.318	0.938	0.686	0.562	0.412	0.342	0.245	0.281	0.273	0.183																																																																																				
697	0.589	0.463	1.338	0.958	0.703	0.576	0.421	0.349	0.249	0.285	0.277	0.185																																																																																				
698	0.581	0.457	1.353	0.974	0.716	0.587	0.429	0.355	0.253	0.289	0.280	0.186																																																																																				
699	0.573	0.450	1.371	0.991	0.731	0.600	0.438	0.362	0.257	0.293	0.284	0.188																																																																																				
700	0.565	0.444	1.386	1.008	0.745	0.612	0.446	0.368	0.261	0.297	0.288	0.190																																																																																				
701	0.556	0.437	1.402	1.026	0.761	0.625	0.455	0.376	0.266	0.302	0.292	0.191																																																																																				
702	0.548	0.430	1.419	1.044	0.777	0.639	0.466	0.383	0.270	0.306	0.297	0.193																																																																																				
703	0.539	0.423	1.436	1.064	0.795	0.654	0.477	0.392	0.276	0.312	0.302	0.196																																																																																				
704	0.531	0.416	1.451	1.082	0.811	0.668	0.486	0.400	0.280	0.317	0.307	0.198																																																																																				
705	0.523	0.410	1.467	1.100	0.827	0.683	0.497	0.408	0.285	0.322	0.312	0.200																																																																																				
706	0.515	0.404	1.481	1.118	0.843	0.698	0.508	0.417	0.291	0.328	0.317	0.203																																																																																				
707	0.508	0.398	1.495	1.136	0.860	0.713	0.519	0.425	0.296	0.333	0.323	0.205																																																																																				
708	0.500	0.392	1.509	1.154	0.876	0.729	0.529	0.434	0.302	0.339	0.328	0.207																																																																																				
709	0.492	0.386	1.524	1.173	0.894	0.746	0.542	0.444	0.308	0.345	0.334	0.210																																																																																				
710	0.486	0.380	1.535	1.190	0.911	0.760	0.553	0.453	0.314	0.351	0.340	0.213																																																																																				
711	0.478	0.374	1.549	1.207	0.928	0.776	0.565	0.463	0.320	0.357	0.346	0.216																																																																																				
712	0.472	0.369	1.560	1.223	0.944	0.792	0.577	0.472	0.326	0.364	0.352	0.218																																																																																				
713	0.464	0.364	1.572	1.241	0.962	0.810	0.589	0.482	0.333	0.371	0.359	0.222																																																																																				
714	0.459	0.358	1.584	1.259	0.980	0.827	0.602	0.493	0.339	0.378	0.365	0.225																																																																																				
715	0.451	0.353	1.595	1.276	0.998	0.845	0.616	0.504	0.347	0.386	0.373	0.228																																																																																				
716	0.444	0.348	1.605	1.293	1.015	0.861	0.628	0.515	0.353	0.393	0.380	0.231																																																																																				
717	0.438	0.343	1.615	1.309	1.033	0.878	0.642	0.526	0.361	0.401	0.387	0.235																																																																																				
718	0.431	0.338	1.624	1.324	1.050	0.895	0.655	0.537	0.368	0.408	0.394	0.238																																																																																				
719	0.425	0.333	1.633	1.341	1.067	0.913	0.668	0.549	0.375	0.416	0.402	0.241																																																																																				
720	0.419	0.329	1.641	1.355	1.083	0.930	0.681	0.560	0.383	0.424	0.409	0.245																																																																																				
721	0.413	0.324	1.648	1.371	1.102	0.949	0.696	0.573	0.391	0.433	0.418	0.249																																																																																				
722	0.407	0.319	1.655	1.387	1.120	0.968	0.711	0.586	0.400	0.442	0.426	0.253																																																																																				
723	0.401	0.314	1.663	1.402	1.138	0.987	0.727	0.599	0.408	0.451	0.435	0.257																																																																																				
724	0.395	0.310	1.668	1.417	1.155	1.005	0.741	0.612	0.416	0.461	0.444	0.261																																																																																				
725	0.389	0.305	1.673	1.431	1.172	1.024	0.756	0.625	0.425	0.470	0.453	0.265																																																																																				
726	0.383	0.301	1.678	1.444	1.188	1.042	0.770	0.638	0.434	0.480	0.462	0.270																																																																																				
727	0.378	0.297	1.683	1.458	1.205	1.061	0.786	0.652	0.444	0.490	0.472	0.274																																																																																				
728	0.372	0.292	1.687	1.472	1.223	1.081	0.803	0.667	0.454	0.501	0.482	0.279																																																																																				
729	0.367	0.288	1.690	1.484	1.240	1.102	0.820	0.682	0.464	0.513	0.493	0.284																																																																																				
730	0.362	0.285	1.692	1.496	1.256	1.119	0.835	0.696	0.473	0.523	0.503	0.290																																																																																				
731	0.357	0.281	1.694	1.508	1.272	1.139	0.851	0.711	0.483	0.535	0.514	0.295																																																																																				
732	0.352	0.277	1.696	1.519	1.288	1.157	0.866	0.725	0.493	0.546	0.525	0.300																																																																																				
733	0.347	0.274	1.697	1.530	1.304	1.177	0.882	0.741	0.504	0.558	0.536	0.306																																																																																				
734	0.343	0.270	1.697	1.539	1.318	1.194	0.897	0.754	0.514	0.569	0.546	0.311																																																																																				
735	0.338	0.267	1.697	1.549	1.333	1.212	0.914	0.770	0.525	0.582	0.558	0.317																																																																																				
736	0.333	0.263	1.696	1.558	1.348	1.232	0.931	0.786	0.536	0.595	0.571	0.323																																																																																				
737	0.329	0.260	1.695	1.567	1.363	1.250	0.947	0.802	0.547	0.607	0.583	0.329																																																																																				
738	0.324	0.256	1.692	1.575	1.377	1.269	0.963	0.818	0.558	0.620	0.595	0.335																																																																																				
739	0.319	0.253	1.690	1.583	1.391	1.287	0.980	0.834	0.570	0.634	0.608	0.342																																																																																				
740	0.315	0.249	1.686	1.589	1.403	1.305	0.995	0.849	0.581	0.647	0.620	0.348																																																																																				
741	0.310	0.246	1.683	1.596	1.416	1.322	1.011	0.865	0.593	0.660	0.633	0.354																																																																																				
742	0.306	0.242	1.679	1.602	1.428	1.340	1.028	0.881	0.605	0.674	0.646	0.361																																																																																				
743	0.301	0.239	1.674	1.607	1.441	1.357	1.044	0.897	0.616	0.688	0.659	0.368																																																																																				
744	0.297	0.236	1.669	1.612	1.453	1.375	1.060	0.914	0.628	0.702	0.673	0.375																																																																																				
745	0.293	0.233	1.663	1.617	1.464	1.392	1.076	0.931	0.641	0.717	0.687	0.383																																																																																				
746	0.289	0.230	1.657	1.621	1.475	1.409	1.091	0.947	0.653	0.732	0.700	0.390																																																																																				
747	0.285	0.227	1.651	1.624	1.486	1.425	1.108	0.965	0.666	0.748	0.716	0.398																																																																																				
748	0.281	0.223	1.644	1.627	1.495	1.442	1.124	0.981	0.678	0.763	0.729	0.405																																																																																				
749	0.277	0.220	1.636	1.629	1.505	1.458	1.140	0.998	0.691	0.778	0.745	0.413																																																																																				
750	0.273	0.218	1.629	1.631	1.514	1.473	1.155	1.015	0.704	0.794	0.759	0.422																																																																																				
751	0.270	0.215	1.621	1.633	1.523	1.488	1.170	1.030	0.717	0.809	0.774	0.430																																																																																				
752	0.266	0.212	1.613	1.634	1.531	1.502	1.185	1.046	0.729	0.824	0.788	0.438																																																																																				
753	0.263	0.210	1.605	1.634	1.539	1.517	1.199	1.062	0.741	0.839	0.803	0.446																																																																																				
754	0.259	0.207	1.597	1.635	1.546	1.530	1.213	1.078	0.754	0.855	0.818	0.454																																																																																				
755	0.256	0.204	1.588	1.634	1.553	1.544	1.228	1.095	0.767	0.872	0.833	0.463																																																																																				
756	0.252	0.202	1.579	1.634	1.560	1.558	1.242	1.111	0.779	0.888	0.849	0.472																																																																																				
757	0.249	0.199	1.570	1.633	1.566	1.571	1.256	1.127	0.792	0.904	0.865	0.481																																																																																				
758	0.245	0.197	1.558	1.631	1.573	1.586	1.272	1.146	0.808	0.924	0.883	0.492																																																																																				
759	0.242	0.194	1.549	1.629	1.578	1.598	1.286	1.162	0.821	0.941	0.899	0.501																																																																																				
760	0.239	0.192	1.538	1.627	1.583	1.611	1.300	1.179	0.835	0.959	0.916	0.512																																																																																				
761	0.236	0.189	1.526	1.624	1.588	1.623	1.315	1.196	0.849	0.977	0.934	0.523																																																																																				
762	0.232	0.186	1.515	1.620	1.593	1.636	1.329	1.213	0.864	0.996	0.952	0.534																																																																																				
763	0.229	0.184	1.505	1.617	1.596	1.646	1.341	1.228	0.876	1.013	0.968	0.543																																																																																				
764	0.227	0.183	1.496	1.614	1.599	1.655	1.351	1.242	0.888	1.028	0.982	0.552																																																																																				
765	0.225	0.181	1.488	1.611	1.601	1.663	1.361	1.253	0.898	1.041	0.994	0.560																																																																																				
766	0.222	0.179	1.477	1.607	1.604	1.672	1.372	1.267	0.910	1.058	1.010	0.570																																																																																				
767	0.219	0.177	1.465	1.602	1.606	1.682	1.384	1.284	0.923	1.076	1.027	0.581																																																																																				
768	0.216	0.174	1.453	1.597	1.608	1.692	1.397	1.299	0.938	1.095	1.046	0.593																																																																																				
769	0.214	0.172	1.442	1.591	1.609	1.700	1.408	1.315	0.951	1.114	1.063	0.604																																																																																				
770	0.211	0.170	1.429	1.585	1.610	1.709	1.420	1.330	0.965	1.132	1.081	0.616																																																																																				
771	0.208	0.168	1.418	1.579	1.611	1.716	1.430	1.343	0.977	1.150	1.097	0.627																																																																																				
772	0.206	0.166	1.407	1.573	1.612	1.724	1.440	1.357	0.990	1.167	1.114	0.638																																																																																				
773	0.203	0.165	1.395	1.567	1.611	1.731	1.450	1.372	1.003	1.186	1.132	0.650																																																																																				
774	0.201	0.163	1.382	1.560	1.611	1.738	1.460	1.385	1.016	1.204	1.149	0.662																																																																																				
775	0.198	0.161	1.371	1.553	1.610	1.744	1.469	1.399	1.028	1.222	1.165	0.674																																																																																				
776	0.196	0.159	1.359	1.546	1.609	1.749	1.478	1.413	1.040	1.240	1.182	0.686																																																																																				
777	0.194	0.157	1.347	1.538	1.607	1.754	1.487	1.425	1.053	1.257	1.199	0.698																																																																																				
778	0.191	0.155	1.334	1.531	1.605	1.760	1.496	1.438	1.066	1.276	1.218	0.711																																																																																				
779	0.189	0.153	1.322	1.522	1.603	1.764	1.504	1.451	1.078	1.294	1.235	0.724																																																																																				
780	0.187	0.152	1.309	1.514	1.601	1.768	1.512	1.464	1.091	1.313	1.252	0.737																																																																																				
781	0.185	0.150	1.297	1.505	1.598	1.773	1.520	1.476	1.103	1.331	1.269	0.749																																																																																				
782	0.182	0.148	1.284	1.497	1.595	1.776	1.526	1.487	1.115	1.349	1.286	0.762																																																																																				
783	0.180	0.147	1.272	1.488	1.591	1.778	1.534	1.499	1.126	1.366	1.303	0.775																																																																																				
784	0.178	0.145	1.259	1.479	1.587	1.781	1.540	1.510	1.138	1.384	1.320	0.788																																																																																				
785	0.176	0.143	1.246	1.469	1.583	1.783	1.547	1.522	1.150	1.403	1.337	0.802																																																																																				
786	0.174	0.142	1.234	1.459	1.579	1.785	1.553	1.534	1.162	1.422	1.355	0.816																																																																																				
787	0.172	0.140	1.220	1.449	1.574	1.786	1.558	1.544	1.174	1.440	1.372	0.830																																																																																				
788	0.170	0.139	1.207	1.440	1.568	1.788	1.563	1.554	1.185	1.458	1.389	0.843																																																																																				
789	0.168	0.137	1.195	1.429	1.563	1.788	1.568	1.563	1.195	1.474	1.404	0.856																																																																																				
790	0.166	0.136	1.184	1.420	1.558	1.789	1.572	1.573	1.205	1.490	1.419	0.869																																																																																				
791	0.164	0.135	1.172	1.410	1.552	1.787	1.576	1.581	1.215	1.506	1.435	0.882																																																																																				
792	0.162	0.133	1.157	1.398	1.545	1.787	1.580	1.591	1.227	1.525	1.453	0.898																																																																																				
793	0.160	0.132	1.145	1.388	1.538	1.786	1.583	1.599	1.236	1.541	1.468	0.911																																																																																				
794	0.159	0.130	1.132	1.377	1.532	1.784	1.586	1.607	1.246	1.558	1.484	0.925																																																																																				
795	0.157	0.129	1.120	1.365	1.525	1.783	1.590	1.616	1.256	1.575	1.500	0.939																																																																																				
796	0.155	0.128	1.108	1.356	1.518	1.781	1.592	1.622	1.265	1.590	1.514	0.952																																																																																				
797	0.154	0.126	1.096	1.345	1.510	1.778	1.593	1.629	1.274	1.606	1.528	0.966																																																																																				
798	0.152	0.125	1.084	1.334	1.503	1.775	1.594	1.636	1.283	1.622	1.544	0.979																																																																																				
799	0.150	0.124	1.071	1.322	1.495	1.772	1.596	1.643	1.291	1.637	1.558	0.994																																																																																				
800	0.149	0.123	1.059	1.310	1.487	1.768	1.597	1.648	1.300	1.652	1.573	1.008																																																																																				
801	0.147	0.121	1.046	1.298	1.478	1.764	1.597	1.655	1.309	1.668	1.588	1.022																																																																																				
802	0.146	0.120	1.034	1.288	1.470	1.760	1.598	1.659	1.316	1.682	1.601	1.035																																																																																				
803	0.144	0.119	1.023	1.277	1.462	1.755	1.597	1.663	1.323	1.696	1.613	1.049																																																																																				
804	0.143	0.118	1.011	1.265	1.452	1.750	1.597	1.669	1.331	1.710	1.628	1.064																																																																																				
805	0.141	0.117	0.999	1.253	1.443	1.745	1.596	1.673	1.338	1.724	1.641	1.077																																																																																				
806	0.140	0.116	0.988	1.243	1.435	1.740	1.595	1.676	1.344	1.736	1.653	1.090																																																																																				
807	0.139	0.115	0.976	1.230	1.425	1.733	1.593	1.679	1.351	1.750	1.666	1.104																																																																																				
808	0.137	0.114	0.965	1.219	1.416	1.728	1.591	1.683	1.357	1.762	1.677	1.116																																																																																				
809	0.136	0.113	0.954	1.208	1.407	1.722	1.589	1.685	1.363	1.774	1.689	1.129																																																																																				
810	0.135	0.112	0.943	1.197	1.397	1.715	1.587	1.688	1.369	1.787	1.700	1.143																																																																																				
811	0.134	0.111	0.931	1.185	1.387	1.708	1.585	1.690	1.374	1.798	1.712	1.156																																																																																				
812	0.132	0.110	0.920	1.173	1.376	1.700	1.581	1.691	1.380	1.811	1.723	1.170																																																																																				
813	0.131	0.109	0.908	1.161	1.366	1.693	1.578	1.693	1.385	1.823	1.734	1.184																																																																																				
814	0.130	0.108	0.897	1.149	1.356	1.685	1.575	1.694	1.389	1.833	1.744	1.196																																																																																				
815	0.129	0.107	0.887	1.137	1.346	1.677	1.570	1.694	1.393	1.843	1.754	1.209																																																																																				
816	0.127	0.106	0.874	1.124	1.334	1.667	1.566	1.695	1.397	1.855	1.765	1.224																																																																																				
817	0.126	0.105	0.864	1.114	1.324	1.660	1.561	1.695	1.401	1.865	1.774	1.235																																																																																				
818	0.126	0.105	0.853	1.101	1.313	1.651	1.556	1.694	1.405	1.874	1.784	1.249																																																																																				
819	0.124	0.104	0.841	1.088	1.301	1.640	1.551	1.694	1.408	1.885	1.793	1.263																																																																																				
820	0.123	0.103	0.827	1.073	1.286	1.629	1.544	1.692	1.412	1.896	1.804	1.279																																																																																				
821	0.122	0.102	0.815	1.059	1.273	1.617	1.537	1.690	1.415	1.906	1.814	1.294																																																																																				
822	0.121	0.102	0.807	1.050	1.265	1.609	1.532	1.689	1.417	1.913	1.820	1.304																																																																																				
823	0.120	0.101	0.801	1.043	1.258	1.604	1.529	1.688	1.418	1.918	1.824	1.311																																																																																				
824	0.120	0.101	0.796	1.038	1.252	1.599	1.526	1.687	1.419	1.922	1.828	1.317																																																																																				
825	0.119	0.101	0.789	1.030	1.245	1.592	1.522	1.686	1.421	1.927	1.833	1.325																																																																																				
826	0.119	0.100	0.776	1.016	1.231	1.579	1.514	1.682	1.422	1.936	1.841	1.339																																																																																				
827	0.118	0.099	0.765	1.002	1.218	1.567	1.505	1.678	1.423	1.944	1.848	1.353																																																																																				
828	0.117	0.099	0.756	0.992	1.208	1.558	1.499	1.675	1.424	1.949	1.853	1.363																																																																																				
829	0.117	0.099	0.750	0.984	1.200	1.550	1.494	1.673	1.425	1.953	1.857	1.371																																																																																				
830	0.116	0.099	0.742	0.975	1.190	1.541	1.488	1.669	1.425	1.957	1.861	1.380																																																																																				
831	0.116	0.098	0.732	0.963	1.178	1.528	1.479	1.664	1.425	1.963	1.866	1.392																																																																																				
832	0.115	0.098	0.718	0.945	1.161	1.512	1.467	1.657	1.423	1.969	1.873	1.407																																																																																				
833	0.114	0.097	0.708	0.934	1.148	1.499	1.458	1.651	1.422	1.973	1.877	1.418																																																																																				
834	0.113	0.097	0.701	0.925	1.139	1.490	1.451	1.647	1.421	1.975	1.880	1.426																																																																																				
835	0.113	0.096	0.694	0.917	1.131	1.481	1.445	1.643	1.421	1.979	1.881	1.433																																																																																				
836	0.113	0.096	0.688	0.909	1.122	1.473	1.439	1.639	1.420	1.980	1.883	1.440																																																																																				
837	0.112	0.096	0.679	0.899	1.112	1.462	1.430	1.633	1.418	1.983	1.885	1.448																																																																																				
838	0.111	0.095	0.669	0.887	1.099	1.448	1.420	1.625	1.415	1.984	1.887	1.458																																																																																				
839	0.110	0.094	0.659	0.874	1.085	1.434	1.409	1.617	1.412	1.985	1.887	1.467																																																																																				
840	0.110	0.094	0.651	0.864	1.075	1.423	1.400	1.610	1.409	1.986	1.889	1.475																																																																																				
841	0.109	0.093	0.643	0.855	1.064	1.412	1.391	1.604	1.407	1.986	1.889	1.481																																																																																				
842	0.108	0.093	0.637	0.846	1.055	1.402	1.384	1.598	1.404	1.986	1.889	1.488																																																																																				
843	0.108	0.093	0.629	0.837	1.045	1.390	1.375	1.591	1.401	1.985	1.888	1.494																																																																																				
844	0.107	0.092	0.620	0.826	1.032	1.377	1.364	1.582	1.396	1.984	1.887	1.501																																																																																				
845	0.106	0.091	0.612	0.815	1.021	1.363	1.353	1.573	1.392	1.984	1.886	1.508																																																																																				
846	0.106	0.091	0.604	0.806	1.010	1.353	1.343	1.565	1.387	1.982	1.884	1.514																																																																																				
847	0.105	0.090	0.597	0.796	0.999	1.340	1.334	1.557	1.383	1.979	1.883	1.520																																																																																				
848	0.104	0.090	0.590	0.788	0.989	1.329	1.324	1.549	1.380	1.977	1.881	1.525																																																																																				
849	0.104	0.089	0.583	0.777	0.979	1.317	1.315	1.540	1.375	1.974	1.878	1.529																																																																																				
850	0.103	0.089	0.576	0.769	0.969	1.305	1.305	1.533	1.370	1.972	1.876	1.534																																																																																				
851	0.103	0.089	0.569	0.760	0.959	1.293	1.296	1.524	1.365	1.970	1.873	1.538																																																																																				
852	0.102	0.088	0.561	0.750	0.948	1.281	1.285	1.513	1.359	1.965	1.869	1.543																																																																																				
853	0.102	0.088	0.555	0.742	0.938	1.269	1.274	1.505	1.354	1.962	1.866	1.547																																																																																				
854	0.101	0.087	0.548	0.733	0.927	1.257	1.265	1.496	1.348	1.958	1.862	1.551																																																																																				
855	0.101	0.087	0.541	0.725	0.918	1.246	1.255	1.487	1.343	1.955	1.858	1.554																																																																																				
856	0.100	0.087	0.534	0.716	0.907	1.233	1.243	1.477	1.337	1.949	1.852	1.557																																																																																				
857	0.100	0.087	0.528	0.707	0.897	1.222	1.234	1.467	1.331	1.944	1.848	1.560																																																																																				
858	0.099	0.086	0.522	0.699	0.888	1.210	1.224	1.458	1.325	1.938	1.843	1.563																																																																																				
859	0.099	0.086	0.515	0.690	0.878	1.198	1.214	1.448	1.319	1.933	1.838	1.565																																																																																				
860	0.098	0.086	0.510	0.683	0.869	1.188	1.204	1.439	1.312	1.928	1.833	1.567																																																																																				
861	0.098	0.085	0.504	0.675	0.860	1.177	1.195	1.430	1.306	1.923	1.828	1.569																																																																																				
862	0.098	0.085	0.498	0.668	0.851	1.166	1.184	1.420	1.300	1.917	1.822	1.570																																																																																				
863	0.097	0.085	0.492	0.660	0.842	1.154	1.174	1.410	1.293	1.910	1.816	1.572																																																																																				
864	0.097	0.085	0.486	0.652	0.833	1.143	1.164	1.400	1.286	1.903	1.809	1.573																																																																																				
865	0.097	0.085	0.481	0.645	0.824	1.132	1.155	1.389	1.280	1.896	1.804	1.574																																																																																				
866	0.097	0.084	0.475	0.637	0.814	1.120	1.144	1.379	1.272	1.889	1.796	1.574																																																																																				
867	0.097	0.084	0.470	0.630	0.806	1.109	1.135	1.370	1.266	1.882	1.789	1.575																																																																																				
868	0.097	0.084	0.465	0.623	0.797	1.099	1.124	1.359	1.258	1.875	1.783	1.575																																																																																				
869	0.096	0.084	0.460	0.616	0.788	1.088	1.114	1.350	1.251	1.868	1.775	1.575																																																																																				
870	0.096	0.084	0.455	0.609	0.780	1.078	1.105	1.340	1.244	1.859	1.768	1.575																																																																																				
871	0.096	0.084	0.450	0.603	0.772	1.067	1.095	1.329	1.237	1.852	1.761	1.575																																																																																				
872	0.096	0.084	0.446	0.596	0.764	1.057	1.087	1.320	1.230	1.844	1.754	1.573																																																																																				
873	0.096	0.084	0.440	0.589	0.755	1.046	1.076	1.310	1.222	1.836	1.744	1.573																																																																																				
874	0.096	0.084	0.436	0.583	0.747	1.036	1.066	1.300	1.215	1.827	1.737	1.572																																																																																				
875	0.096	0.084	0.431	0.576	0.738	1.025	1.056	1.288	1.207	1.818	1.728	1.569																																																																																				
876	0.095	0.084	0.426	0.569	0.730	1.014	1.046	1.278	1.198	1.809	1.720	1.567																																																																																				
877	0.095	0.083	0.420	0.562	0.721	1.002	1.035	1.266	1.190	1.799	1.710	1.565																																																																																				
878	0.094	0.083	0.414	0.553	0.710	0.988	1.022	1.252	1.179	1.786	1.698	1.562																																																																																				
879	0.094	0.082	0.408	0.544	0.699	0.974	1.009	1.238	1.167	1.772	1.685	1.558																																																																																				
880	0.093	0.082	0.402	0.536	0.690	0.962	0.997	1.226	1.157	1.761	1.675	1.554																																																																																				
881	0.092	0.081	0.399	0.532	0.685	0.956	0.991	1.219	1.152	1.755	1.669	1.552																																																																																				
882	0.092	0.081	0.396	0.529	0.681	0.950	0.986	1.214	1.148	1.750	1.664	1.550																																																																																				
883	0.092	0.081	0.394	0.526	0.677	0.945	0.981	1.208	1.144	1.745	1.659	1.548																																																																																				
884	0.091	0.081	0.391	0.522	0.672	0.939	0.975	1.202	1.139	1.739	1.652	1.546																																																																																				
885	0.091	0.081	0.388	0.516	0.665	0.929	0.966	1.192	1.131	1.729	1.643	1.542																																																																																				
886	0.091	0.081	0.381	0.508	0.655	0.915	0.952	1.177	1.119	1.713	1.629	1.536																																																																																				
887	0.090	0.080	0.376	0.501	0.646	0.904	0.941	1.165	1.109	1.701	1.618	1.531																																																																																				
888	0.090	0.080	0.372	0.495	0.639	0.893	0.931	1.154	1.100	1.689	1.606	1.526																																																																																				
889	0.089	0.080	0.367	0.489	0.631	0.883	0.921	1.143	1.090	1.678	1.596	1.520																																																																																				
890	0.089	0.079	0.363	0.483	0.624	0.873	0.911	1.131	1.081	1.666	1.585	1.515																																																																																				
891	0.089	0.079	0.359	0.477	0.616	0.863	0.901	1.119	1.071	1.654	1.573	1.510																																																																																				
892	0.088	0.079	0.354	0.470	0.607	0.851	0.889	1.106	1.060	1.639	1.559	1.503																																																																																				
893	0.088	0.079	0.349	0.464	0.599	0.840	0.878	1.094	1.050	1.626	1.547	1.496																																																																																				
894	0.088	0.079	0.346	0.458	0.593	0.831	0.870	1.084	1.042	1.615	1.537	1.491																																																																																				
895	0.088	0.078	0.343	0.455	0.587	0.824	0.863	1.077	1.036	1.607	1.529	1.486																																																																																				
896	0.087	0.079	0.341	0.451	0.584	0.819	0.857	1.070	1.030	1.600	1.522	1.483																																																																																				
897	0.088	0.079	0.338	0.448	0.578	0.812	0.851	1.063	1.024	1.591	1.513	1.478																																																																																				
898	0.087	0.079	0.335	0.443	0.573	0.804	0.843	1.054	1.016	1.581	1.504	1.473																																																																																				
899	0.087	0.078	0.331	0.438	0.565	0.794	0.833	1.042	1.006	1.567	1.491	1.466																																																																																				
900	0.087	0.078	0.327	0.432	0.558	0.783	0.823	1.030	0.996	1.553	1.478	1.458																																																																																				
901	0.087	0.078	0.323	0.426	0.550	0.773	0.812	1.017	0.985	1.538	1.464	1.449																																																																																				
902	0.086	0.078	0.319	0.420	0.542	0.762	0.801	1.004	0.974	1.523	1.449	1.441																																																																																				
903	0.086	0.078	0.315	0.415	0.536	0.753	0.791	0.993	0.964	1.510	1.438	1.432																																																																																				
904	0.086	0.078	0.313	0.412	0.532	0.747	0.786	0.987	0.959	1.502	1.430	1.427																																																																																				
905	0.086	0.078	0.311	0.409	0.528	0.743	0.781	0.981	0.954	1.496	1.423	1.424																																																																																				
906	0.087	0.078	0.310	0.407	0.525	0.738	0.776	0.976	0.949	1.489	1.416	1.419																																																																																				
907	0.087	0.079	0.308	0.404	0.521	0.731	0.770	0.968	0.942	1.479	1.407	1.413																																																																																				
908	0.087	0.078	0.304	0.398	0.513	0.721	0.759	0.955	0.931	1.463	1.392	1.403																																																																																				
909	0.087	0.078	0.301	0.393	0.506	0.712	0.750	0.944	0.921	1.449	1.379	1.395																																																																																				
910	0.087	0.078	0.298	0.389	0.500	0.703	0.741	0.933	0.912	1.436	1.367	1.386																																																																																				
911	0.087	0.079	0.295	0.385	0.495	0.695	0.733	0.923	0.903	1.424	1.355	1.378																																																																																				
912	0.087	0.079	0.292	0.379	0.488	0.686	0.724	0.911	0.892	1.408	1.341	1.367																																																																																				
913	0.087	0.079	0.289	0.375	0.482	0.677	0.714	0.899	0.882	1.393	1.327	1.357																																																																																				
914	0.087	0.079	0.285	0.370	0.476	0.667	0.705	0.888	0.872	1.378	1.313	1.348																																																																																				
915	0.088	0.080	0.284	0.368	0.472	0.662	0.699	0.882	0.866	1.370	1.305	1.341																																																																																				
916	0.088	0.080	0.283	0.366	0.469	0.659	0.695	0.877	0.861	1.364	1.298	1.337																																																																																				
917	0.088	0.080	0.281	0.364	0.467	0.655	0.691	0.873	0.858	1.358	1.293	1.333																																																																																				
918	0.088	0.081	0.281	0.362	0.464	0.651	0.688	0.868	0.853	1.352	1.286	1.328																																																																																				
919	0.089	0.081	0.279	0.359	0.460	0.645	0.681	0.860	0.846	1.341	1.276	1.320																																																																																				
920	0.090	0.082	0.277	0.356	0.455	0.638	0.674	0.850	0.837	1.328	1.264	1.312																																																																																				
921	0.090	0.082	0.274	0.352	0.450	0.630	0.666	0.840	0.828	1.314	1.251	1.301																																																																																				
922	0.091	0.083	0.273	0.350	0.446	0.624	0.659	0.831	0.820	1.303	1.240	1.293																																																																																				
923	0.092	0.084	0.271	0.346	0.442	0.617	0.651	0.822	0.811	1.290	1.228	1.284																																																																																				
924	0.093	0.085	0.270	0.344	0.438	0.612	0.646	0.815	0.805	1.280	1.219	1.276																																																																																				
925	0.093	0.085	0.269	0.342	0.434	0.606	0.639	0.807	0.797	1.269	1.208	1.267																																																																																				
926	0.095	0.086	0.268	0.340	0.431	0.600	0.634	0.799	0.790	1.257	1.198	1.259																																																																																				
927	0.096	0.088	0.267	0.337	0.427	0.595	0.628	0.792	0.783	1.248	1.188	1.251																																																																																				
928	0.097	0.089	0.266	0.335	0.424	0.589	0.622	0.784	0.776	1.236	1.177	1.242																																																																																				
929	0.098	0.090	0.265	0.333	0.421	0.585	0.617	0.778	0.769	1.226	1.168	1.235																																																																																				
930	0.099	0.091	0.265	0.332	0.418	0.580	0.612	0.771	0.763	1.217	1.160	1.227																																																																																				
931	0.101	0.093	0.264	0.330	0.416	0.576	0.607	0.765	0.757	1.207	1.150	1.219																																																																																				
932	0.102	0.094	0.264	0.329	0.413	0.572	0.602	0.758	0.751	1.198	1.141	1.212																																																																																				
933	0.103	0.096	0.264	0.327	0.410	0.567	0.597	0.751	0.744	1.187	1.131	1.203																																																																																				
934	0.105	0.097	0.264	0.326	0.408	0.562	0.592	0.745	0.738	1.177	1.122	1.195																																																																																				
935	0.107	0.099	0.264	0.325	0.406	0.558	0.587	0.738	0.731	1.167	1.112	1.186																																																																																				
936	0.109	0.101	0.264	0.324	0.404	0.554	0.583	0.732	0.725	1.158	1.104	1.179																																																																																				
937	0.110	0.102	0.264	0.323	0.402	0.551	0.579	0.727	0.720	1.149	1.096	1.172																																																																																				
938	0.112	0.104	0.264	0.323	0.400	0.548	0.576	0.723	0.716	1.143	1.090	1.166																																																																																				
939	0.113	0.106	0.265	0.322	0.399	0.546	0.572	0.718	0.712	1.137	1.083	1.160																																																																																				
940	0.115	0.108	0.266	0.322	0.398	0.543	0.569	0.714	0.707	1.129	1.076	1.154																																																																																				
941	0.117	0.110	0.266	0.321	0.397	0.540	0.566	0.709	0.702	1.121	1.069	1.146																																																																																				
942	0.120	0.112	0.267	0.321	0.395	0.537	0.562	0.704	0.696	1.112	1.060	1.139																																																																																				
943	0.122	0.115	0.268	0.321	0.394	0.535	0.559	0.699	0.692	1.105	1.053	1.132																																																																																				
944	0.125	0.117	0.270	0.322	0.393	0.533	0.556	0.695	0.687	1.097	1.046	1.125																																																																																				
945	0.128	0.120	0.271	0.323	0.393	0.531	0.554	0.691	0.683	1.091	1.040	1.119																																																																																				
946	0.131	0.123	0.274	0.323	0.393	0.529	0.551	0.687	0.680	1.084	1.034	1.113																																																																																				
947	0.134	0.126	0.276	0.325	0.393	0.528	0.550	0.684	0.676	1.078	1.028	1.107																																																																																				
948	0.138	0.130	0.279	0.326	0.394	0.527	0.548	0.681	0.673	1.072	1.022	1.101																																																																																				
949	0.142	0.134	0.282	0.328	0.395	0.527	0.547	0.679	0.670	1.067	1.017	1.096																																																																																				
950	0.146	0.138	0.285	0.330	0.396	0.527	0.546	0.677	0.667	1.063	1.013	1.092																																																																																				
951	0.150	0.142	0.288	0.333	0.397	0.528	0.546	0.676	0.666	1.060	1.010	1.088																																																																																				
952	0.153	0.145	0.291	0.335	0.399	0.528	0.546	0.675	0.664	1.056	1.007	1.085																																																																																				
953	0.158	0.150	0.295	0.338	0.400	0.529	0.546	0.674	0.662	1.053	1.003	1.081																																																																																				
954	0.163	0.155	0.300	0.341	0.402	0.530	0.546	0.672	0.660	1.049	1.000	1.076																																																																																				
955	0.168	0.160	0.304	0.344	0.404	0.531	0.546	0.671	0.658	1.045	0.996	1.072																																																																																				
956	0.172	0.164	0.307	0.346	0.406	0.532	0.545	0.669	0.656	1.041	0.992	1.067																																																																																				
957	0.176	0.168	0.311	0.348	0.407	0.532	0.544	0.667	0.653	1.036	0.987	1.061																																																																																				
958	0.180	0.171	0.314	0.350	0.408	0.531	0.543	0.664	0.650	1.030	0.982	1.055																																																																																				
959	0.182	0.174	0.316	0.351	0.408	0.530	0.541	0.662	0.647	1.024	0.977	1.050																																																																																				
960	0.184	0.176	0.317	0.351	0.407	0.529	0.539	0.658	0.643	1.018	0.970	1.044																																																																																				
961	0.187	0.178	0.318	0.352	0.407	0.527	0.537	0.655	0.640	1.012	0.964	1.037																																																																																				
962	0.188	0.179	0.318	0.351	0.406	0.524	0.534	0.650	0.635	1.003	0.957	1.029																																																																																				
963	0.189	0.181	0.318	0.351	0.405	0.522	0.531	0.646	0.631	0.997	0.951	1.022																																																																																				
964	0.190	0.181	0.318	0.350	0.403	0.519	0.527	0.641	0.626	0.989	0.943	1.014																																																																																				
965	0.191	0.182	0.318	0.349	0.401	0.516	0.524	0.636	0.621	0.981	0.935	1.007																																																																																				
966	0.192	0.183	0.317	0.347	0.399	0.512	0.520	0.631	0.616	0.972	0.926	0.998																																																																																				
967	0.192	0.183	0.317	0.346	0.397	0.509	0.517	0.627	0.611	0.964	0.920	0.991																																																																																				
968	0.192	0.184	0.316	0.345	0.395	0.506	0.513	0.622	0.607	0.957	0.912	0.983																																																																																				
969	0.193	0.184	0.315	0.344	0.393	0.503	0.510	0.618	0.602	0.950	0.905	0.975																																																																																				
970	0.193	0.184	0.314	0.342	0.391	0.500	0.506	0.613	0.597	0.941	0.898	0.967																																																																																				
971	0.193	0.184	0.314	0.341	0.389	0.497	0.503	0.608	0.593	0.934	0.890	0.960																																																																																				
972	0.193	0.184	0.313	0.339	0.387	0.493	0.499	0.603	0.588	0.925	0.883	0.952																																																																																				
973	0.193	0.185	0.312	0.338	0.385	0.490	0.496	0.599	0.583	0.918	0.875	0.944																																																																																				
974	0.193	0.184	0.310	0.336	0.382	0.486	0.491	0.593	0.577	0.908	0.866	0.934																																																																																				
975	0.193	0.184	0.309	0.334	0.379	0.482	0.487	0.586	0.571	0.898	0.857	0.924																																																																																				
976	0.192	0.183	0.307	0.331	0.376	0.477	0.482	0.579	0.564	0.886	0.846	0.913																																																																																				
977	0.192	0.183	0.305	0.329	0.373	0.473	0.477	0.574	0.558	0.878	0.838	0.905																																																																																				
978	0.191	0.183	0.304	0.327	0.371	0.470	0.474	0.570	0.554	0.871	0.832	0.898																																																																																				
979	0.191	0.183	0.303	0.326	0.370	0.468	0.471	0.567	0.552	0.867	0.828	0.893																																																																																				
980	0.191	0.183	0.302	0.326	0.368	0.466	0.470	0.565	0.550	0.864	0.824	0.890																																																																																				
981	0.191	0.183	0.302	0.324	0.367	0.464	0.468	0.562	0.547	0.859	0.819	0.885																																																																																				
982	0.190	0.182	0.300	0.323	0.365	0.462	0.465	0.559	0.543	0.853	0.813	0.879																																																																																				
983	0.189	0.181	0.298	0.320	0.361	0.457	0.461	0.552	0.537	0.843	0.804	0.869																																																																																				
984	0.188	0.180	0.295	0.316	0.357	0.451	0.454	0.544	0.529	0.830	0.792	0.856																																																																																				
985	0.186	0.178	0.292	0.313	0.353	0.445	0.448	0.537	0.522	0.819	0.781	0.846																																																																																				
986	0.185	0.177	0.289	0.310	0.350	0.441	0.443	0.531	0.516	0.809	0.772	0.836																																																																																				
987	0.183	0.175	0.287	0.307	0.346	0.436	0.438	0.524	0.510	0.799	0.763	0.826																																																																																				
988	0.182	0.174	0.284	0.303	0.342	0.430	0.433	0.516	0.502	0.787	0.752	0.814																																																																																				
989	0.180	0.172	0.281	0.300	0.338	0.425	0.428	0.510	0.496	0.777	0.743	0.805																																																																																				
990	0.178	0.170	0.278	0.297	0.335	0.420	0.423	0.504	0.491	0.768	0.734	0.795																																																																																				
991	0.178	0.170	0.276	0.295	0.332	0.417	0.419	0.500	0.487	0.762	0.729	0.790																																																																																				
992	0.177	0.169	0.275	0.294	0.331	0.415	0.417	0.498	0.485	0.758	0.725	0.785																																																																																				
993	0.176	0.169	0.274	0.293	0.330	0.413	0.415	0.496	0.483	0.755	0.721	0.782																																																																																				
994	0.176	0.168	0.273	0.291	0.328	0.411	0.413	0.493	0.480	0.751	0.717	0.777																																																																																				
995	0.175	0.168	0.271	0.290	0.325	0.408	0.411	0.490	0.476	0.745	0.711	0.771																																																																																				
996	0.173	0.166	0.269	0.287	0.322	0.404	0.406	0.484	0.471	0.736	0.702	0.762																																																																																				
997	0.171	0.164	0.265	0.283	0.318	0.398	0.400	0.476	0.464	0.725	0.692	0.751																																																																																				
998	0.169	0.162	0.262	0.279	0.314	0.393	0.395	0.470	0.457	0.714	0.682	0.741																																																																																				
999	0.167	0.160	0.259	0.276	0.310	0.388	0.390	0.463	0.451	0.705	0.673	0.732																																																																																				

结果
	1	2	3	4	5	6	7	8	9	10	11	12
A	0.973	0.919	1.697	1.635	1.612	1.789	1.598	1.695	1.425	1.986	1.889	1.575	Mean Max OD [Spectrum]
B	?????	?????	?????	?????	?????	?????	?????	?????	?????	?????	?????	?????	Mean Max OD [Spectrum]
C	?????	?????	?????	?????	?????	?????	?????	?????	?????	?????	?????	?????	Mean Max OD [Spectrum]
D	?????	?????	?????	?????	?????	?????	?????	?????	?????	?????	?????	?????	Mean Max OD [Spectrum]
E	?????	?????	?????	?????	?????	?????	?????	?????	?????	?????	?????	?????	Mean Max OD [Spectrum]
F	?????	?????	?????	?????	?????	?????	?????	?????	?????	?????	?????	?????	Mean Max OD [Spectrum]
G	?????	?????	?????	?????	?????	?????	?????	?????	?????	?????	?????	?????	Mean Max OD [Spectrum]
H	?????	?????	?????	?????	?????	?????	?????	?????	?????	?????	?????	?????	Mean Max OD [Spectrum]

