

软件版本	3.11.19



实验文件路径:	
方案文件路径:	



板编号	板 1
日期	2023/3/23
时间	11:23:11
检测仪类型:	Epoch 2
检测仪序列号:	2205170B
检测类型	检测仪

程序详细信息

板类型	96 WELL PLATE
完成后弹出板	
检测	吸收光 光谱
	H1..H12
	开始: 400 nm,  停止: 999 nm,  步骤: 1 nm
	检测前校准
	检测速度: 正常,  延迟: 100 msec,  测量值/数据点: 8

Spectrum

波长	A1	A2	A3	A4	A5	A6	A7	A8	A9	A10	A11	A12	B1	B2	B3	B4	B5	B6	B7	B8	B9	B10	B11	B12	C1	C2	C3	C4	C5	C6	C7	C8	C9	C10	C11	C12	D1	D2	D3	D4	D5	D6	D7	D8	D9	D10	D11	D12	E1	E2	E3	E4	E5	E6	E7	E8	E9	E10	E11	E12	F1	F2	F3	F4	F5	F6	F7	F8	F9	F10	F11	F12	G1	G2	G3	G4	G5	G6	G7	G8	G9	G10	G11	G12	H1	H2	H3	H4	H5	H6	H7	H8	H9	H10	H11	H12
400																																																																																					0.568	0.645	0.647	0.686	0.643	0.495	0.584	0.593	0.621	0.704	0.633	0.599
401																																																																																					0.567	0.644	0.646	0.684	0.641	0.494	0.583	0.592	0.620	0.703	0.632	0.597
402																																																																																					0.565	0.642	0.644	0.682	0.640	0.492	0.581	0.590	0.618	0.701	0.630	0.596
403																																																																																					0.564	0.640	0.642	0.681	0.638	0.491	0.580	0.588	0.616	0.699	0.628	0.594
404																																																																																					0.562	0.639	0.641	0.679	0.636	0.490	0.578	0.587	0.615	0.697	0.627	0.593
405																																																																																					0.561	0.637	0.639	0.677	0.635	0.489	0.577	0.586	0.613	0.695	0.625	0.591
406																																																																																					0.560	0.636	0.638	0.676	0.633	0.487	0.576	0.584	0.612	0.694	0.624	0.590
407																																																																																					0.558	0.634	0.636	0.674	0.632	0.486	0.574	0.583	0.611	0.692	0.623	0.589
408																																																																																					0.557	0.633	0.635	0.673	0.631	0.485	0.573	0.582	0.609	0.691	0.621	0.587
409																																																																																					0.556	0.632	0.633	0.671	0.629	0.484	0.572	0.580	0.608	0.689	0.620	0.586
410																																																																																					0.554	0.630	0.632	0.670	0.628	0.483	0.570	0.579	0.606	0.687	0.618	0.585
411																																																																																					0.553	0.629	0.630	0.668	0.626	0.482	0.569	0.577	0.605	0.685	0.617	0.583
412																																																																																					0.552	0.627	0.629	0.667	0.625	0.481	0.568	0.576	0.603	0.684	0.615	0.582
413																																																																																					0.551	0.626	0.628	0.665	0.623	0.480	0.567	0.575	0.602	0.682	0.614	0.580
414																																																																																					0.549	0.624	0.626	0.663	0.622	0.479	0.565	0.574	0.601	0.681	0.612	0.579
415																																																																																					0.548	0.623	0.625	0.662	0.621	0.478	0.564	0.572	0.599	0.679	0.611	0.578
416																																																																																					0.547	0.622	0.624	0.661	0.619	0.477	0.563	0.571	0.598	0.678	0.610	0.577
417																																																																																					0.546	0.620	0.622	0.659	0.618	0.476	0.562	0.570	0.597	0.676	0.608	0.575
418																																																																																					0.545	0.619	0.621	0.658	0.617	0.475	0.560	0.569	0.595	0.675	0.607	0.574
419																																																																																					0.543	0.618	0.620	0.656	0.615	0.474	0.559	0.567	0.594	0.673	0.606	0.572
420																																																																																					0.542	0.617	0.618	0.655	0.614	0.473	0.558	0.566	0.593	0.672	0.604	0.571
421																																																																																					0.541	0.615	0.617	0.654	0.613	0.472	0.557	0.565	0.592	0.670	0.603	0.570
422																																																																																					0.540	0.614	0.616	0.653	0.612	0.471	0.556	0.564	0.591	0.669	0.602	0.569
423																																																																																					0.540	0.613	0.615	0.652	0.611	0.470	0.555	0.563	0.590	0.668	0.601	0.568
424																																																																																					0.539	0.612	0.614	0.650	0.610	0.470	0.554	0.562	0.589	0.667	0.600	0.567
425																																																																																					0.538	0.611	0.613	0.649	0.608	0.469	0.553	0.561	0.588	0.665	0.599	0.566
426																																																																																					0.537	0.610	0.612	0.648	0.607	0.468	0.552	0.560	0.586	0.664	0.597	0.565
427																																																																																					0.536	0.609	0.611	0.647	0.606	0.467	0.551	0.559	0.586	0.663	0.596	0.564
428																																																																																					0.535	0.608	0.610	0.645	0.605	0.466	0.550	0.558	0.585	0.662	0.595	0.563
429																																																																																					0.534	0.607	0.609	0.644	0.604	0.466	0.549	0.557	0.583	0.660	0.594	0.561
430																																																																																					0.533	0.606	0.607	0.643	0.603	0.465	0.548	0.556	0.582	0.659	0.593	0.560
431																																																																																					0.532	0.605	0.606	0.642	0.602	0.464	0.547	0.555	0.581	0.658	0.592	0.559
432																																																																																					0.531	0.604	0.605	0.641	0.601	0.463	0.546	0.554	0.580	0.656	0.591	0.558
433																																																																																					0.530	0.603	0.604	0.640	0.600	0.462	0.546	0.553	0.579	0.655	0.590	0.557
434																																																																																					0.529	0.602	0.603	0.638	0.598	0.461	0.544	0.552	0.578	0.654	0.588	0.556
435																																																																																					0.528	0.601	0.602	0.637	0.598	0.461	0.544	0.551	0.577	0.653	0.587	0.555
436																																																																																					0.528	0.599	0.601	0.636	0.596	0.460	0.543	0.550	0.576	0.652	0.586	0.554
437																																																																																					0.527	0.599	0.600	0.635	0.595	0.459	0.542	0.549	0.575	0.650	0.585	0.553
438																																																																																					0.526	0.598	0.599	0.634	0.594	0.458	0.541	0.548	0.574	0.649	0.584	0.552
439																																																																																					0.525	0.597	0.598	0.633	0.594	0.457	0.540	0.547	0.573	0.648	0.583	0.551
440																																																																																					0.524	0.596	0.597	0.632	0.592	0.457	0.539	0.546	0.572	0.647	0.582	0.550
441																																																																																					0.524	0.595	0.596	0.631	0.592	0.456	0.538	0.546	0.571	0.646	0.581	0.549
442																																																																																					0.523	0.594	0.595	0.630	0.591	0.456	0.538	0.545	0.571	0.645	0.580	0.548
443																																																																																					0.522	0.594	0.594	0.629	0.590	0.455	0.537	0.544	0.570	0.644	0.580	0.547
444																																																																																					0.522	0.593	0.594	0.628	0.589	0.454	0.536	0.543	0.569	0.643	0.578	0.546
445																																																																																					0.521	0.592	0.593	0.627	0.588	0.454	0.535	0.543	0.568	0.642	0.578	0.545
446																																																																																					0.520	0.591	0.592	0.626	0.587	0.453	0.535	0.542	0.568	0.641	0.577	0.545
447																																																																																					0.520	0.590	0.591	0.625	0.587	0.453	0.534	0.541	0.567	0.640	0.576	0.544
448																																																																																					0.519	0.590	0.590	0.625	0.586	0.452	0.534	0.541	0.566	0.640	0.575	0.543
449																																																																																					0.519	0.589	0.590	0.624	0.586	0.452	0.533	0.540	0.566	0.639	0.574	0.542
450																																																																																					0.518	0.589	0.589	0.623	0.585	0.451	0.533	0.539	0.565	0.638	0.574	0.542
451																																																																																					0.518	0.588	0.588	0.622	0.584	0.451	0.532	0.539	0.564	0.637	0.573	0.541
452																																																																																					0.517	0.588	0.588	0.622	0.584	0.450	0.532	0.539	0.564	0.637	0.572	0.540
453																																																																																					0.517	0.587	0.587	0.621	0.583	0.450	0.531	0.538	0.563	0.636	0.572	0.540
454																																																																																					0.517	0.587	0.587	0.621	0.583	0.450	0.531	0.538	0.563	0.635	0.571	0.539
455																																																																																					0.516	0.587	0.586	0.620	0.582	0.449	0.531	0.537	0.563	0.635	0.570	0.538
456																																																																																					0.516	0.586	0.586	0.620	0.582	0.449	0.530	0.537	0.562	0.634	0.570	0.538
457																																																																																					0.516	0.586	0.585	0.619	0.582	0.449	0.530	0.537	0.562	0.634	0.569	0.537
458																																																																																					0.516	0.586	0.585	0.619	0.581	0.449	0.530	0.536	0.562	0.634	0.569	0.537
459																																																																																					0.516	0.586	0.584	0.619	0.581	0.449	0.530	0.536	0.562	0.633	0.569	0.537
460																																																																																					0.516	0.586	0.584	0.618	0.581	0.448	0.530	0.536	0.561	0.633	0.568	0.536
461																																																																																					0.516	0.586	0.584	0.618	0.581	0.449	0.530	0.536	0.561	0.633	0.568	0.536
462																																																																																					0.516	0.586	0.584	0.618	0.581	0.449	0.530	0.536	0.561	0.633	0.568	0.536
463																																																																																					0.516	0.586	0.584	0.618	0.581	0.449	0.530	0.536	0.562	0.633	0.568	0.536
464																																																																																					0.516	0.586	0.584	0.618	0.581	0.449	0.530	0.536	0.562	0.633	0.568	0.536
465																																																																																					0.517	0.586	0.584	0.618	0.581	0.449	0.530	0.536	0.562	0.633	0.568	0.536
466																																																																																					0.517	0.587	0.584	0.619	0.582	0.449	0.530	0.537	0.562	0.633	0.568	0.536
467																																																																																					0.517	0.587	0.584	0.619	0.582	0.449	0.531	0.537	0.563	0.633	0.568	0.536
468																																																																																					0.518	0.588	0.585	0.619	0.583	0.450	0.531	0.537	0.563	0.634	0.568	0.536
469																																																																																					0.519	0.589	0.585	0.620	0.583	0.450	0.532	0.538	0.564	0.634	0.569	0.537
470																																																																																					0.520	0.589	0.586	0.621	0.584	0.451	0.533	0.539	0.565	0.635	0.569	0.537
471																																																																																					0.520	0.590	0.586	0.621	0.585	0.451	0.533	0.539	0.565	0.635	0.570	0.537
472																																																																																					0.521	0.591	0.587	0.622	0.586	0.452	0.534	0.540	0.566	0.636	0.571	0.538
473																																																																																					0.522	0.593	0.588	0.623	0.587	0.453	0.535	0.541	0.567	0.637	0.571	0.539
474																																																																																					0.524	0.594	0.589	0.625	0.588	0.454	0.537	0.542	0.569	0.639	0.572	0.540
475																																																																																					0.525	0.595	0.590	0.626	0.590	0.455	0.538	0.544	0.570	0.640	0.574	0.541
476																																																																																					0.527	0.597	0.592	0.628	0.591	0.456	0.540	0.545	0.572	0.642	0.575	0.542
477																																																																																					0.528	0.599	0.594	0.629	0.593	0.458	0.541	0.547	0.574	0.643	0.576	0.543
478																																																																																					0.530	0.601	0.595	0.631	0.595	0.459	0.543	0.549	0.576	0.646	0.578	0.545
479																																																																																					0.533	0.604	0.598	0.634	0.598	0.461	0.546	0.551	0.578	0.648	0.580	0.547
480																																																																																					0.535	0.606	0.600	0.636	0.600	0.463	0.548	0.554	0.581	0.650	0.582	0.548
481																																																																																					0.538	0.610	0.603	0.640	0.604	0.466	0.551	0.557	0.584	0.654	0.585	0.551
482																																																																																					0.542	0.614	0.606	0.644	0.607	0.469	0.554	0.560	0.588	0.658	0.588	0.554
483																																																																																					0.544	0.617	0.609	0.647	0.610	0.471	0.557	0.563	0.591	0.660	0.591	0.556
484																																																																																					0.547	0.620	0.611	0.650	0.613	0.473	0.560	0.565	0.593	0.663	0.593	0.558
485																																																																																					0.550	0.623	0.614	0.653	0.616	0.475	0.562	0.568	0.596	0.666	0.596	0.561
486																																																																																					0.554	0.627	0.618	0.657	0.620	0.478	0.566	0.572	0.600	0.670	0.599	0.564
487																																																																																					0.559	0.633	0.622	0.662	0.625	0.482	0.571	0.576	0.605	0.675	0.604	0.567
488																																																																																					0.563	0.637	0.626	0.667	0.629	0.486	0.575	0.581	0.610	0.680	0.608	0.571
489																																																																																					0.567	0.642	0.630	0.671	0.634	0.489	0.579	0.585	0.614	0.684	0.612	0.575
490																																																																																					0.573	0.648	0.636	0.678	0.640	0.493	0.584	0.590	0.620	0.690	0.617	0.579
491																																																																																					0.579	0.655	0.642	0.685	0.647	0.499	0.591	0.597	0.627	0.697	0.623	0.585
492																																																																																					0.584	0.661	0.647	0.691	0.652	0.503	0.596	0.601	0.632	0.703	0.627	0.589
493																																																																																					0.589	0.667	0.652	0.696	0.658	0.507	0.601	0.607	0.638	0.708	0.632	0.594
494																																																																																					0.595	0.674	0.658	0.703	0.665	0.512	0.607	0.613	0.645	0.715	0.638	0.599
495																																																																																					0.604	0.683	0.665	0.713	0.673	0.519	0.615	0.621	0.653	0.723	0.645	0.605
496																																																																																					0.612	0.693	0.673	0.721	0.682	0.525	0.623	0.629	0.662	0.732	0.653	0.612
497																																																																																					0.620	0.702	0.681	0.731	0.692	0.532	0.631	0.637	0.671	0.741	0.660	0.618
498																																																																																					0.626	0.709	0.687	0.738	0.698	0.538	0.637	0.643	0.678	0.747	0.665	0.623
499																																																																																					0.633	0.716	0.693	0.745	0.705	0.543	0.643	0.650	0.685	0.754	0.671	0.628
500																																																																																					0.641	0.725	0.700	0.754	0.714	0.549	0.651	0.657	0.694	0.762	0.678	0.634
501																																																																																					0.649	0.734	0.707	0.762	0.722	0.556	0.658	0.665	0.702	0.770	0.685	0.640
502																																																																																					0.657	0.743	0.715	0.771	0.731	0.562	0.666	0.673	0.711	0.778	0.692	0.646
503																																																																																					0.665	0.752	0.722	0.780	0.739	0.569	0.674	0.681	0.719	0.786	0.698	0.652
504																																																																																					0.674	0.761	0.729	0.789	0.748	0.576	0.682	0.689	0.729	0.794	0.705	0.658
505																																																																																					0.681	0.769	0.736	0.797	0.756	0.582	0.689	0.696	0.737	0.801	0.711	0.663
506																																																																																					0.689	0.778	0.743	0.805	0.764	0.588	0.696	0.704	0.746	0.808	0.717	0.668
507																																																																																					0.697	0.786	0.749	0.813	0.772	0.594	0.703	0.711	0.754	0.815	0.723	0.673
508																																																																																					0.704	0.794	0.755	0.820	0.779	0.599	0.710	0.718	0.761	0.821	0.728	0.677
509																																																																																					0.711	0.802	0.761	0.827	0.786	0.605	0.716	0.724	0.769	0.827	0.732	0.681
510																																																																																					0.718	0.809	0.767	0.834	0.794	0.610	0.722	0.731	0.776	0.833	0.737	0.685
511																																																																																					0.724	0.815	0.772	0.839	0.799	0.614	0.727	0.736	0.783	0.837	0.740	0.688
512																																																																																					0.730	0.821	0.776	0.845	0.805	0.619	0.732	0.741	0.789	0.841	0.743	0.690
513																																																																																					0.734	0.826	0.780	0.849	0.809	0.622	0.736	0.745	0.794	0.845	0.746	0.692
514																																																																																					0.739	0.831	0.783	0.852	0.813	0.625	0.740	0.749	0.798	0.847	0.748	0.693
515																																																																																					0.742	0.834	0.786	0.855	0.816	0.627	0.743	0.752	0.802	0.849	0.749	0.694
516																																																																																					0.746	0.838	0.789	0.858	0.819	0.630	0.745	0.754	0.806	0.850	0.749	0.694
517																																																																																					0.749	0.840	0.791	0.859	0.822	0.632	0.747	0.756	0.809	0.851	0.750	0.694
518																																																																																					0.750	0.842	0.793	0.860	0.823	0.633	0.749	0.758	0.811	0.851	0.749	0.693
519																																																																																					0.752	0.843	0.794	0.861	0.824	0.633	0.749	0.759	0.812	0.851	0.748	0.692
520																																																																																					0.753	0.844	0.794	0.861	0.824	0.634	0.750	0.759	0.813	0.850	0.747	0.690
521																																																																																					0.753	0.844	0.795	0.860	0.824	0.634	0.749	0.759	0.813	0.848	0.746	0.689
522																																																																																					0.754	0.844	0.795	0.859	0.823	0.633	0.749	0.758	0.814	0.846	0.743	0.686
523																																																																																					0.753	0.843	0.795	0.857	0.822	0.632	0.748	0.757	0.813	0.843	0.740	0.683
524																																																																																					0.752	0.841	0.794	0.855	0.820	0.631	0.746	0.756	0.812	0.840	0.737	0.679
525																																																																																					0.751	0.839	0.793	0.852	0.818	0.629	0.744	0.754	0.810	0.836	0.733	0.676
526																																																																																					0.749	0.836	0.792	0.848	0.815	0.627	0.741	0.751	0.808	0.832	0.729	0.672
527																																																																																					0.747	0.834	0.790	0.845	0.812	0.625	0.739	0.749	0.806	0.827	0.725	0.667
528																																																																																					0.745	0.831	0.789	0.842	0.809	0.623	0.736	0.746	0.804	0.824	0.721	0.664
529																																																																																					0.743	0.829	0.787	0.838	0.806	0.621	0.733	0.744	0.801	0.820	0.718	0.660
530																																																																																					0.741	0.826	0.786	0.835	0.803	0.619	0.731	0.741	0.799	0.816	0.714	0.657
531																																																																																					0.739	0.823	0.783	0.830	0.799	0.616	0.727	0.738	0.796	0.811	0.709	0.652
532																																																																																					0.735	0.818	0.780	0.825	0.794	0.612	0.723	0.734	0.792	0.805	0.703	0.646
533																																																																																					0.732	0.814	0.777	0.819	0.790	0.609	0.720	0.730	0.788	0.799	0.698	0.641
534																																																																																					0.730	0.810	0.775	0.815	0.786	0.606	0.716	0.727	0.785	0.794	0.693	0.636
535																																																																																					0.726	0.806	0.772	0.809	0.781	0.603	0.712	0.723	0.781	0.788	0.688	0.631
536																																																																																					0.723	0.802	0.769	0.804	0.776	0.599	0.708	0.719	0.777	0.782	0.682	0.625
537																																																																																					0.720	0.798	0.765	0.798	0.772	0.596	0.704	0.715	0.773	0.776	0.677	0.620
538																																																																																					0.716	0.793	0.761	0.792	0.766	0.592	0.700	0.711	0.769	0.770	0.670	0.614
539																																																																																					0.713	0.789	0.758	0.786	0.762	0.589	0.696	0.707	0.766	0.764	0.665	0.609
540																																																																																					0.710	0.785	0.753	0.780	0.756	0.585	0.692	0.702	0.762	0.757	0.659	0.603
541																																																																																					0.707	0.781	0.750	0.775	0.752	0.581	0.688	0.699	0.758	0.752	0.653	0.597
542																																																																																					0.705	0.777	0.746	0.770	0.748	0.579	0.685	0.695	0.755	0.747	0.649	0.593
543																																																																																					0.702	0.774	0.742	0.765	0.744	0.576	0.681	0.692	0.752	0.742	0.644	0.588
544																																																																																					0.700	0.770	0.738	0.759	0.739	0.572	0.678	0.688	0.748	0.736	0.638	0.582
545																																																																																					0.697	0.766	0.733	0.753	0.734	0.569	0.674	0.684	0.744	0.729	0.632	0.576
546																																																																																					0.695	0.763	0.729	0.747	0.729	0.566	0.670	0.681	0.741	0.723	0.626	0.571
547																																																																																					0.692	0.760	0.724	0.741	0.725	0.562	0.667	0.677	0.738	0.718	0.621	0.565
548																																																																																					0.690	0.756	0.719	0.736	0.720	0.559	0.664	0.674	0.735	0.712	0.615	0.560
549																																																																																					0.688	0.754	0.715	0.731	0.716	0.557	0.661	0.671	0.732	0.707	0.610	0.555
550																																																																																					0.687	0.750	0.709	0.725	0.712	0.553	0.658	0.667	0.729	0.701	0.605	0.549
551																																																																																					0.685	0.748	0.704	0.720	0.708	0.551	0.656	0.665	0.726	0.696	0.599	0.544
552																																																																																					0.683	0.745	0.699	0.714	0.703	0.548	0.653	0.661	0.723	0.690	0.594	0.539
553																																																																																					0.682	0.743	0.693	0.709	0.700	0.545	0.651	0.659	0.720	0.685	0.589	0.533
554																																																																																					0.681	0.741	0.688	0.704	0.696	0.543	0.649	0.656	0.718	0.680	0.584	0.528
555																																																																																					0.681	0.739	0.682	0.699	0.692	0.541	0.647	0.654	0.715	0.676	0.579	0.524
556																																																																																					0.680	0.738	0.676	0.694	0.689	0.539	0.646	0.651	0.713	0.670	0.574	0.519
557																																																																																					0.680	0.736	0.670	0.690	0.686	0.537	0.644	0.649	0.711	0.666	0.569	0.514
558																																																																																					0.680	0.735	0.663	0.685	0.682	0.535	0.643	0.647	0.709	0.661	0.564	0.509
559																																																																																					0.680	0.735	0.656	0.681	0.679	0.533	0.642	0.645	0.707	0.656	0.559	0.504
560																																																																																					0.681	0.734	0.650	0.677	0.677	0.532	0.642	0.644	0.706	0.652	0.555	0.500
561																																																																																					0.681	0.734	0.643	0.673	0.674	0.531	0.641	0.642	0.704	0.648	0.551	0.496
562																																																																																					0.682	0.734	0.636	0.670	0.673	0.530	0.641	0.641	0.704	0.645	0.548	0.492
563																																																																																					0.683	0.735	0.631	0.667	0.672	0.529	0.642	0.641	0.703	0.642	0.545	0.490
564																																																																																					0.685	0.736	0.624	0.664	0.670	0.529	0.642	0.640	0.702	0.639	0.541	0.486
565																																																																																					0.687	0.737	0.616	0.661	0.669	0.528	0.643	0.640	0.702	0.636	0.538	0.482
566																																																																																					0.689	0.739	0.610	0.659	0.669	0.529	0.644	0.640	0.702	0.634	0.535	0.480
567																																																																																					0.692	0.741	0.602	0.657	0.668	0.529	0.646	0.641	0.702	0.632	0.533	0.477
568																																																																																					0.694	0.743	0.595	0.656	0.668	0.529	0.647	0.641	0.703	0.630	0.531	0.475
569																																																																																					0.697	0.746	0.588	0.654	0.668	0.530	0.650	0.642	0.704	0.629	0.529	0.472
570																																																																																					0.700	0.748	0.581	0.653	0.669	0.531	0.652	0.644	0.705	0.628	0.527	0.470
571																																																																																					0.704	0.752	0.573	0.653	0.670	0.532	0.655	0.645	0.706	0.627	0.525	0.469
572																																																																																					0.708	0.756	0.566	0.652	0.672	0.534	0.658	0.647	0.708	0.627	0.524	0.467
573																																																																																					0.712	0.759	0.559	0.652	0.673	0.536	0.661	0.650	0.709	0.626	0.524	0.466
574																																																																																					0.716	0.763	0.552	0.653	0.675	0.538	0.664	0.652	0.712	0.627	0.523	0.465
575																																																																																					0.721	0.768	0.545	0.653	0.678	0.540	0.668	0.655	0.714	0.627	0.523	0.464
576																																																																																					0.725	0.772	0.539	0.655	0.680	0.542	0.672	0.657	0.717	0.628	0.523	0.464
577																																																																																					0.729	0.777	0.532	0.656	0.683	0.545	0.676	0.660	0.719	0.630	0.523	0.464
578																																																																																					0.734	0.783	0.526	0.658	0.687	0.548	0.681	0.664	0.723	0.632	0.524	0.464
579																																																																																					0.740	0.789	0.518	0.660	0.691	0.552	0.686	0.668	0.726	0.634	0.525	0.464
580																																																																																					0.746	0.795	0.511	0.663	0.696	0.556	0.692	0.673	0.730	0.637	0.526	0.465
581																																																																																					0.751	0.801	0.505	0.666	0.700	0.560	0.697	0.677	0.734	0.639	0.528	0.466
582																																																																																					0.757	0.808	0.499	0.669	0.705	0.564	0.703	0.682	0.738	0.643	0.530	0.467
583																																																																																					0.763	0.815	0.493	0.673	0.711	0.569	0.709	0.687	0.743	0.647	0.533	0.469
584																																																																																					0.769	0.823	0.487	0.678	0.717	0.574	0.716	0.692	0.748	0.651	0.535	0.470
585																																																																																					0.775	0.830	0.481	0.682	0.723	0.579	0.723	0.698	0.753	0.656	0.539	0.472
586																																																																																					0.782	0.838	0.476	0.688	0.730	0.585	0.730	0.704	0.758	0.661	0.542	0.475
587																																																																																					0.788	0.846	0.471	0.694	0.738	0.590	0.737	0.710	0.764	0.667	0.546	0.478
588																																																																																					0.795	0.854	0.467	0.699	0.745	0.596	0.744	0.716	0.769	0.672	0.550	0.481
589																																																																																					0.801	0.862	0.462	0.705	0.752	0.602	0.751	0.722	0.774	0.678	0.554	0.484
590																																																																																					0.807	0.870	0.458	0.712	0.760	0.608	0.759	0.728	0.780	0.685	0.559	0.487
591																																																																																					0.814	0.879	0.454	0.719	0.769	0.615	0.767	0.735	0.786	0.692	0.564	0.491
592																																																																																					0.820	0.886	0.451	0.726	0.776	0.621	0.774	0.741	0.791	0.698	0.569	0.495
593																																																																																					0.826	0.895	0.448	0.733	0.785	0.627	0.782	0.748	0.797	0.705	0.574	0.499
594																																																																																					0.833	0.904	0.444	0.742	0.794	0.635	0.791	0.755	0.803	0.714	0.580	0.504
595																																																																																					0.840	0.913	0.441	0.751	0.805	0.642	0.800	0.762	0.809	0.722	0.587	0.509
596																																																																																					0.846	0.922	0.439	0.759	0.814	0.650	0.808	0.769	0.815	0.730	0.593	0.514
597																																																																																					0.851	0.930	0.437	0.767	0.823	0.656	0.816	0.776	0.821	0.738	0.600	0.519
598																																																																																					0.857	0.939	0.435	0.776	0.833	0.664	0.825	0.783	0.827	0.747	0.606	0.524
599																																																																																					0.863	0.948	0.433	0.786	0.843	0.671	0.833	0.790	0.833	0.756	0.614	0.530
600																																																																																					0.869	0.958	0.432	0.797	0.854	0.680	0.843	0.798	0.840	0.766	0.622	0.537
601																																																																																					0.876	0.968	0.431	0.809	0.867	0.689	0.854	0.807	0.847	0.778	0.631	0.544
602																																																																																					0.882	0.978	0.430	0.821	0.879	0.698	0.864	0.815	0.854	0.790	0.640	0.552
603																																																																																					0.887	0.986	0.429	0.831	0.889	0.705	0.872	0.822	0.859	0.800	0.649	0.558
604																																																																																					0.892	0.995	0.429	0.842	0.900	0.713	0.881	0.830	0.865	0.810	0.657	0.566
605																																																																																					0.896	1.003	0.429	0.853	0.911	0.720	0.889	0.837	0.871	0.821	0.665	0.572
606																																																																																					0.901	1.011	0.429	0.864	0.921	0.728	0.898	0.844	0.876	0.831	0.674	0.580
607																																																																																					0.905	1.018	0.430	0.875	0.932	0.736	0.906	0.851	0.881	0.842	0.683	0.587
608																																																																																					0.910	1.027	0.431	0.889	0.945	0.745	0.916	0.859	0.888	0.856	0.695	0.597
609																																																																																					0.913	1.035	0.432	0.901	0.956	0.753	0.925	0.866	0.893	0.867	0.705	0.605
610																																																																																					0.916	1.042	0.433	0.912	0.967	0.760	0.932	0.873	0.898	0.878	0.714	0.613
611																																																																																					0.919	1.048	0.434	0.924	0.977	0.767	0.940	0.879	0.903	0.889	0.723	0.621
612																																																																																					0.922	1.055	0.436	0.937	0.989	0.775	0.948	0.886	0.908	0.902	0.735	0.630
613																																																																																					0.925	1.062	0.439	0.950	1.000	0.783	0.956	0.893	0.913	0.915	0.746	0.640
614																																																																																					0.927	1.069	0.442	0.964	1.012	0.791	0.964	0.900	0.918	0.928	0.757	0.651
615																																																																																					0.929	1.075	0.445	0.978	1.023	0.798	0.971	0.907	0.923	0.942	0.769	0.661
616																																																																																					0.930	1.080	0.448	0.992	1.034	0.806	0.979	0.914	0.928	0.956	0.782	0.671
617																																																																																					0.931	1.085	0.451	1.005	1.045	0.813	0.985	0.920	0.932	0.969	0.793	0.682
618																																																																																					0.932	1.090	0.455	1.018	1.056	0.819	0.992	0.926	0.936	0.982	0.805	0.692
619																																																																																					0.932	1.094	0.459	1.032	1.066	0.826	0.997	0.931	0.940	0.995	0.817	0.703
620																																																																																					0.931	1.098	0.464	1.046	1.077	0.833	1.004	0.937	0.944	1.010	0.830	0.715
621																																																																																					0.930	1.101	0.469	1.060	1.087	0.839	1.009	0.943	0.947	1.023	0.843	0.726
622																																																																																					0.929	1.104	0.475	1.075	1.097	0.845	1.014	0.948	0.951	1.037	0.856	0.739
623																																																																																					0.928	1.106	0.480	1.089	1.106	0.850	1.018	0.953	0.954	1.051	0.869	0.750
624																																																																																					0.926	1.107	0.487	1.102	1.115	0.855	1.022	0.958	0.957	1.065	0.882	0.762
625																																																																																					0.923	1.109	0.493	1.116	1.124	0.860	1.025	0.962	0.959	1.078	0.895	0.774
626																																																																																					0.920	1.109	0.499	1.129	1.132	0.864	1.028	0.966	0.961	1.091	0.908	0.785
627																																																																																					0.917	1.109	0.507	1.142	1.140	0.869	1.030	0.970	0.964	1.105	0.921	0.798
628																																																																																					0.914	1.109	0.514	1.154	1.146	0.872	1.032	0.973	0.965	1.117	0.933	0.809
629																																																																																					0.910	1.108	0.522	1.167	1.153	0.875	1.034	0.976	0.967	1.130	0.946	0.822
630																																																																																					0.905	1.107	0.530	1.180	1.160	0.878	1.034	0.979	0.969	1.143	0.959	0.834
631																																																																																					0.901	1.105	0.538	1.190	1.165	0.880	1.035	0.981	0.970	1.153	0.970	0.845
632																																																																																					0.896	1.102	0.548	1.202	1.171	0.883	1.035	0.983	0.971	1.166	0.983	0.857
633																																																																																					0.891	1.100	0.557	1.214	1.175	0.884	1.034	0.985	0.971	1.178	0.996	0.869
634																																																																																					0.885	1.096	0.567	1.225	1.180	0.886	1.034	0.987	0.972	1.189	1.008	0.881
635																																																																																					0.879	1.092	0.578	1.237	1.184	0.887	1.032	0.988	0.972	1.202	1.021	0.894
636																																																																																					0.873	1.088	0.589	1.247	1.187	0.887	1.030	0.989	0.972	1.213	1.032	0.905
637																																																																																					0.867	1.084	0.600	1.257	1.190	0.887	1.028	0.990	0.972	1.223	1.044	0.917
638																																																																																					0.860	1.079	0.612	1.268	1.192	0.887	1.025	0.991	0.971	1.234	1.056	0.929
639																																																																																					0.853	1.073	0.625	1.277	1.194	0.887	1.022	0.991	0.971	1.244	1.068	0.941
640																																																																																					0.846	1.068	0.638	1.286	1.195	0.886	1.018	0.991	0.970	1.254	1.079	0.952
641																																																																																					0.839	1.062	0.651	1.295	1.196	0.884	1.014	0.990	0.968	1.263	1.090	0.963
642																																																																																					0.832	1.055	0.666	1.303	1.196	0.882	1.009	0.990	0.966	1.273	1.101	0.974
643																																																																																					0.824	1.048	0.680	1.311	1.196	0.880	1.004	0.989	0.964	1.281	1.111	0.985
644																																																																																					0.816	1.042	0.695	1.318	1.195	0.878	1.000	0.988	0.963	1.289	1.121	0.996
645																																																																																					0.808	1.034	0.711	1.325	1.194	0.875	0.994	0.986	0.960	1.296	1.131	1.006
646																																																																																					0.800	1.027	0.727	1.331	1.192	0.872	0.989	0.984	0.957	1.304	1.140	1.015
647																																																																																					0.792	1.019	0.744	1.337	1.189	0.868	0.982	0.982	0.954	1.310	1.149	1.025
648																																																																																					0.784	1.012	0.762	1.342	1.186	0.864	0.976	0.979	0.950	1.317	1.157	1.034
649																																																																																					0.775	1.003	0.780	1.347	1.183	0.860	0.969	0.976	0.947	1.322	1.165	1.043
650																																																																																					0.767	0.995	0.797	1.351	1.179	0.856	0.962	0.973	0.943	1.327	1.173	1.051
651																																																																																					0.758	0.986	0.816	1.355	1.174	0.851	0.955	0.970	0.939	1.331	1.179	1.059
652																																																																																					0.751	0.978	0.834	1.357	1.170	0.846	0.949	0.967	0.934	1.335	1.186	1.066
653																																																																																					0.742	0.970	0.853	1.360	1.165	0.841	0.941	0.963	0.929	1.339	1.192	1.073
654																																																																																					0.734	0.961	0.873	1.362	1.159	0.836	0.934	0.959	0.924	1.341	1.197	1.080
655																																																																																					0.725	0.951	0.893	1.363	1.153	0.830	0.926	0.954	0.919	1.344	1.202	1.086
656																																																																																					0.716	0.942	0.915	1.364	1.146	0.824	0.917	0.949	0.913	1.346	1.207	1.092
657																																																																																					0.707	0.932	0.937	1.364	1.140	0.817	0.909	0.944	0.907	1.347	1.211	1.098
658																																																																																					0.699	0.922	0.958	1.364	1.133	0.811	0.900	0.939	0.901	1.348	1.215	1.103
659																																																																																					0.690	0.912	0.981	1.363	1.125	0.804	0.892	0.933	0.894	1.348	1.218	1.108
660																																																																																					0.682	0.903	1.001	1.362	1.118	0.798	0.883	0.927	0.888	1.348	1.221	1.112
661																																																																																					0.673	0.893	1.024	1.360	1.109	0.791	0.875	0.921	0.880	1.347	1.223	1.116
662																																																																																					0.664	0.883	1.048	1.357	1.100	0.784	0.865	0.914	0.873	1.346	1.225	1.120
663																																																																																					0.656	0.873	1.070	1.355	1.092	0.777	0.857	0.908	0.866	1.344	1.227	1.123
664																																																																																					0.647	0.863	1.093	1.352	1.083	0.769	0.848	0.901	0.859	1.342	1.228	1.126
665																																																																																					0.639	0.853	1.115	1.348	1.074	0.762	0.838	0.894	0.851	1.339	1.229	1.129
666																																																																																					0.630	0.843	1.138	1.344	1.065	0.755	0.829	0.887	0.843	1.336	1.229	1.131
667																																																																																					0.621	0.832	1.163	1.339	1.054	0.746	0.819	0.879	0.835	1.332	1.229	1.133
668																																																																																					0.612	0.821	1.188	1.334	1.044	0.738	0.809	0.871	0.826	1.328	1.228	1.135
669																																																																																					0.603	0.810	1.212	1.328	1.033	0.730	0.799	0.863	0.818	1.323	1.228	1.137
670																																																																																					0.595	0.799	1.235	1.321	1.023	0.721	0.789	0.855	0.809	1.318	1.226	1.138
671																																																																																					0.586	0.789	1.259	1.315	1.012	0.713	0.779	0.846	0.800	1.313	1.225	1.139
672																																																																																					0.578	0.778	1.281	1.308	1.002	0.705	0.769	0.838	0.792	1.307	1.223	1.140
673																																																																																					0.569	0.768	1.305	1.301	0.991	0.696	0.759	0.829	0.783	1.301	1.221	1.140
674																																																																																					0.560	0.756	1.329	1.292	0.979	0.688	0.748	0.820	0.773	1.294	1.218	1.140
675																																																																																					0.552	0.746	1.351	1.285	0.968	0.679	0.739	0.811	0.765	1.287	1.215	1.140
676																																																																																					0.544	0.735	1.374	1.276	0.956	0.670	0.728	0.801	0.755	1.280	1.212	1.140
677																																																																																					0.535	0.724	1.396	1.267	0.944	0.661	0.717	0.792	0.746	1.272	1.208	1.139
678																																																																																					0.528	0.714	1.417	1.259	0.933	0.653	0.708	0.784	0.737	1.264	1.205	1.139
679																																																																																					0.519	0.703	1.438	1.248	0.921	0.644	0.697	0.774	0.728	1.256	1.200	1.137
680																																																																																					0.511	0.692	1.459	1.238	0.908	0.635	0.687	0.764	0.718	1.247	1.196	1.136
681																																																																																					0.503	0.681	1.480	1.228	0.896	0.626	0.676	0.755	0.709	1.238	1.190	1.134
682																																																																																					0.495	0.671	1.498	1.218	0.884	0.617	0.666	0.746	0.700	1.230	1.185	1.133
683																																																																																					0.488	0.661	1.516	1.207	0.873	0.609	0.657	0.737	0.692	1.221	1.180	1.131
684																																																																																					0.480	0.651	1.533	1.196	0.861	0.600	0.647	0.727	0.682	1.211	1.175	1.128
685																																																																																					0.472	0.640	1.551	1.184	0.848	0.591	0.637	0.718	0.673	1.201	1.168	1.125
686																																																																																					0.465	0.629	1.569	1.172	0.835	0.582	0.626	0.708	0.663	1.190	1.161	1.122
687																																																																																					0.457	0.619	1.585	1.159	0.822	0.572	0.615	0.698	0.654	1.179	1.154	1.118
688																																																																																					0.449	0.608	1.600	1.147	0.810	0.563	0.606	0.689	0.645	1.168	1.147	1.115
689																																																																																					0.442	0.599	1.613	1.135	0.797	0.555	0.596	0.679	0.636	1.158	1.140	1.111
690																																																																																					0.436	0.590	1.625	1.123	0.786	0.546	0.587	0.671	0.627	1.147	1.133	1.106
691																																																																																					0.429	0.581	1.636	1.111	0.775	0.538	0.579	0.662	0.619	1.137	1.125	1.102
692																																																																																					0.423	0.572	1.646	1.098	0.762	0.530	0.569	0.653	0.611	1.126	1.117	1.097
693																																																																																					0.415	0.562	1.656	1.085	0.750	0.521	0.560	0.644	0.602	1.115	1.109	1.092
694																																																																																					0.409	0.553	1.664	1.072	0.739	0.513	0.551	0.635	0.594	1.103	1.101	1.087
695																																																																																					0.403	0.544	1.671	1.058	0.727	0.505	0.542	0.627	0.585	1.092	1.092	1.081
696																																																																																					0.396	0.535	1.677	1.045	0.715	0.496	0.534	0.617	0.577	1.080	1.083	1.075
697																																																																																					0.390	0.526	1.683	1.030	0.702	0.488	0.525	0.608	0.568	1.068	1.073	1.069
698																																																																																					0.384	0.518	1.686	1.018	0.692	0.480	0.517	0.601	0.560	1.057	1.065	1.063
699																																																																																					0.379	0.511	1.689	1.005	0.681	0.473	0.509	0.593	0.552	1.046	1.057	1.057
700																																																																																					0.374	0.503	1.690	0.993	0.671	0.466	0.502	0.586	0.545	1.036	1.048	1.051
701																																																																																					0.368	0.495	1.690	0.980	0.659	0.459	0.494	0.578	0.537	1.025	1.039	1.044
702																																																																																					0.362	0.487	1.690	0.966	0.648	0.451	0.486	0.570	0.529	1.013	1.030	1.037
703																																																																																					0.357	0.479	1.687	0.951	0.637	0.443	0.478	0.561	0.521	1.001	1.019	1.030
704																																																																																					0.352	0.473	1.685	0.939	0.627	0.436	0.471	0.554	0.514	0.990	1.010	1.023
705																																																																																					0.347	0.465	1.681	0.925	0.616	0.429	0.464	0.546	0.506	0.979	1.001	1.016
706																																																																																					0.342	0.458	1.676	0.913	0.606	0.422	0.457	0.539	0.499	0.969	0.992	1.009
707																																																																																					0.337	0.451	1.671	0.899	0.596	0.416	0.451	0.532	0.492	0.958	0.983	1.002
708																																																																																					0.333	0.445	1.664	0.887	0.587	0.409	0.444	0.525	0.485	0.948	0.974	0.994
709																																																																																					0.328	0.438	1.656	0.873	0.576	0.402	0.437	0.518	0.477	0.936	0.964	0.987
710																																																																																					0.323	0.431	1.648	0.861	0.567	0.396	0.431	0.511	0.471	0.927	0.956	0.979
711																																																																																					0.319	0.425	1.639	0.848	0.557	0.390	0.425	0.504	0.464	0.916	0.947	0.972
712																																																																																					0.315	0.419	1.630	0.836	0.549	0.384	0.419	0.498	0.458	0.907	0.939	0.965
713																																																																																					0.310	0.413	1.619	0.823	0.539	0.378	0.413	0.491	0.451	0.896	0.929	0.957
714																																																																																					0.306	0.407	1.607	0.810	0.530	0.372	0.407	0.485	0.444	0.886	0.920	0.950
715																																																																																					0.302	0.401	1.594	0.797	0.521	0.366	0.401	0.478	0.437	0.876	0.911	0.942
716																																																																																					0.298	0.395	1.582	0.785	0.513	0.360	0.395	0.472	0.431	0.867	0.903	0.935
717																																																																																					0.294	0.389	1.568	0.773	0.504	0.355	0.390	0.466	0.425	0.857	0.894	0.928
718																																																																																					0.290	0.384	1.554	0.761	0.496	0.349	0.385	0.460	0.419	0.848	0.886	0.920
719																																																																																					0.286	0.379	1.540	0.749	0.487	0.344	0.379	0.454	0.413	0.839	0.877	0.913
720																																																																																					0.283	0.373	1.525	0.738	0.480	0.339	0.374	0.449	0.407	0.830	0.870	0.906
721																																																																																					0.279	0.368	1.508	0.725	0.471	0.333	0.368	0.443	0.401	0.821	0.861	0.899
722																																																																																					0.275	0.362	1.491	0.713	0.463	0.328	0.363	0.436	0.395	0.811	0.852	0.892
723																																																																																					0.272	0.357	1.474	0.701	0.455	0.322	0.358	0.431	0.389	0.802	0.844	0.885
724																																																																																					0.268	0.352	1.457	0.690	0.448	0.317	0.353	0.425	0.384	0.793	0.836	0.878
725																																																																																					0.265	0.347	1.439	0.679	0.440	0.312	0.348	0.419	0.378	0.785	0.828	0.871
726																																																																																					0.261	0.342	1.422	0.668	0.433	0.308	0.344	0.414	0.373	0.777	0.821	0.864
727																																																																																					0.258	0.337	1.403	0.657	0.426	0.303	0.339	0.409	0.367	0.768	0.813	0.858
728																																																																																					0.255	0.332	1.383	0.646	0.418	0.298	0.334	0.404	0.362	0.759	0.804	0.851
729																																																																																					0.251	0.328	1.364	0.634	0.411	0.293	0.329	0.399	0.357	0.750	0.797	0.844
730																																																																																					0.249	0.324	1.347	0.625	0.405	0.289	0.325	0.394	0.352	0.743	0.790	0.838
731																																																																																					0.246	0.319	1.326	0.614	0.399	0.285	0.321	0.389	0.347	0.735	0.782	0.832
732																																																																																					0.243	0.315	1.308	0.604	0.392	0.281	0.317	0.384	0.343	0.727	0.775	0.826
733																																																																																					0.240	0.311	1.289	0.594	0.386	0.277	0.313	0.380	0.338	0.720	0.768	0.819
734																																																																																					0.237	0.308	1.271	0.585	0.380	0.273	0.309	0.375	0.334	0.713	0.762	0.814
735																																																																																					0.235	0.303	1.252	0.575	0.374	0.269	0.305	0.371	0.329	0.705	0.754	0.808
736																																																																																					0.232	0.299	1.231	0.565	0.368	0.265	0.301	0.366	0.325	0.697	0.747	0.801
737																																																																																					0.229	0.295	1.212	0.556	0.362	0.261	0.297	0.362	0.321	0.690	0.740	0.795
738																																																																																					0.226	0.291	1.191	0.546	0.356	0.257	0.293	0.357	0.316	0.682	0.733	0.789
739																																																																																					0.224	0.287	1.172	0.537	0.350	0.254	0.289	0.353	0.312	0.675	0.726	0.783
740																																																																																					0.221	0.284	1.153	0.528	0.345	0.250	0.286	0.349	0.308	0.668	0.719	0.777
741																																																																																					0.218	0.280	1.134	0.519	0.339	0.246	0.282	0.345	0.304	0.660	0.713	0.771
742																																																																																					0.216	0.276	1.115	0.510	0.334	0.242	0.278	0.340	0.300	0.653	0.706	0.765
743																																																																																					0.213	0.272	1.095	0.501	0.328	0.239	0.274	0.336	0.296	0.646	0.699	0.759
744																																																																																					0.211	0.269	1.076	0.493	0.323	0.235	0.271	0.332	0.291	0.639	0.692	0.753
745																																																																																					0.208	0.265	1.057	0.484	0.318	0.232	0.267	0.328	0.288	0.632	0.685	0.747
746																																																																																					0.206	0.262	1.039	0.476	0.313	0.229	0.264	0.324	0.284	0.625	0.679	0.741
747																																																																																					0.203	0.258	1.019	0.468	0.307	0.225	0.261	0.320	0.280	0.618	0.672	0.736
748																																																																																					0.201	0.254	1.001	0.459	0.302	0.222	0.257	0.316	0.276	0.611	0.665	0.730
749																																																																																					0.199	0.251	0.983	0.451	0.297	0.219	0.253	0.313	0.273	0.605	0.659	0.724
750																																																																																					0.196	0.248	0.964	0.444	0.293	0.216	0.250	0.309	0.269	0.598	0.653	0.718
751																																																																																					0.194	0.245	0.948	0.436	0.289	0.213	0.247	0.305	0.266	0.592	0.647	0.713
752																																																																																					0.192	0.242	0.931	0.429	0.284	0.210	0.244	0.302	0.263	0.586	0.641	0.707
753																																																																																					0.190	0.239	0.915	0.422	0.280	0.207	0.241	0.299	0.260	0.580	0.635	0.702
754																																																																																					0.188	0.236	0.899	0.415	0.276	0.204	0.238	0.295	0.257	0.574	0.629	0.697
755																																																																																					0.186	0.233	0.882	0.408	0.272	0.202	0.236	0.292	0.253	0.568	0.624	0.691
756																																																																																					0.184	0.230	0.866	0.401	0.268	0.199	0.233	0.289	0.250	0.562	0.618	0.686
757																																																																																					0.182	0.227	0.850	0.394	0.264	0.196	0.230	0.286	0.247	0.556	0.612	0.680
758																																																																																					0.180	0.224	0.832	0.386	0.259	0.193	0.227	0.282	0.244	0.550	0.605	0.674
759																																																																																					0.178	0.222	0.816	0.380	0.255	0.191	0.224	0.279	0.241	0.545	0.600	0.669
760																																																																																					0.176	0.219	0.801	0.374	0.252	0.188	0.222	0.276	0.238	0.539	0.594	0.664
761																																																																																					0.174	0.216	0.785	0.367	0.248	0.186	0.218	0.273	0.235	0.533	0.589	0.658
762																																																																																					0.172	0.213	0.768	0.360	0.243	0.183	0.216	0.269	0.232	0.527	0.582	0.652
763																																																																																					0.170	0.211	0.755	0.354	0.240	0.181	0.213	0.267	0.229	0.522	0.578	0.647
764																																																																																					0.169	0.208	0.743	0.349	0.237	0.179	0.211	0.264	0.227	0.518	0.573	0.643
765																																																																																					0.167	0.207	0.733	0.345	0.235	0.177	0.209	0.262	0.225	0.514	0.569	0.639
766																																																																																					0.166	0.204	0.720	0.340	0.232	0.175	0.207	0.259	0.223	0.509	0.564	0.634
767																																																																																					0.164	0.202	0.706	0.334	0.228	0.173	0.205	0.257	0.220	0.504	0.559	0.629
768																																																																																					0.162	0.200	0.691	0.328	0.224	0.170	0.202	0.254	0.217	0.499	0.553	0.624
769																																																																																					0.160	0.197	0.678	0.323	0.221	0.168	0.200	0.251	0.215	0.494	0.549	0.619
770																																																																																					0.159	0.195	0.665	0.317	0.218	0.166	0.197	0.248	0.212	0.489	0.544	0.614
771																																																																																					0.157	0.193	0.653	0.312	0.215	0.164	0.196	0.246	0.210	0.484	0.539	0.610
772																																																																																					0.156	0.190	0.641	0.307	0.212	0.162	0.193	0.243	0.208	0.480	0.535	0.605
773																																																																																					0.154	0.188	0.629	0.302	0.209	0.160	0.191	0.241	0.205	0.475	0.530	0.600
774																																																																																					0.153	0.186	0.617	0.297	0.206	0.158	0.189	0.238	0.203	0.471	0.525	0.596
775																																																																																					0.151	0.184	0.606	0.292	0.204	0.156	0.187	0.236	0.201	0.467	0.521	0.591
776																																																																																					0.150	0.182	0.594	0.288	0.201	0.154	0.185	0.234	0.199	0.463	0.516	0.587
777																																																																																					0.148	0.180	0.584	0.283	0.198	0.152	0.183	0.231	0.197	0.458	0.512	0.583
778																																																																																					0.147	0.178	0.572	0.279	0.195	0.151	0.181	0.229	0.195	0.454	0.508	0.578
779																																																																																					0.145	0.176	0.562	0.274	0.193	0.149	0.179	0.227	0.192	0.450	0.503	0.573
780																																																																																					0.144	0.174	0.551	0.270	0.190	0.147	0.177	0.225	0.191	0.445	0.499	0.569
781																																																																																					0.142	0.172	0.541	0.266	0.188	0.146	0.175	0.222	0.188	0.441	0.495	0.565
782																																																																																					0.141	0.170	0.531	0.262	0.185	0.144	0.173	0.220	0.186	0.438	0.491	0.560
783																																																																																					0.140	0.168	0.521	0.258	0.183	0.142	0.172	0.218	0.185	0.434	0.487	0.557
784																																																																																					0.139	0.167	0.511	0.254	0.180	0.141	0.170	0.216	0.183	0.430	0.483	0.552
785																																																																																					0.137	0.165	0.501	0.249	0.178	0.139	0.168	0.214	0.181	0.426	0.479	0.548
786																																																																																					0.136	0.163	0.491	0.245	0.175	0.137	0.166	0.212	0.179	0.422	0.474	0.544
787																																																																																					0.135	0.161	0.481	0.241	0.173	0.136	0.164	0.209	0.176	0.418	0.470	0.539
788																																																																																					0.134	0.159	0.473	0.238	0.171	0.134	0.163	0.208	0.175	0.414	0.467	0.536
789																																																																																					0.132	0.157	0.465	0.234	0.169	0.133	0.161	0.206	0.173	0.411	0.463	0.532
790																																																																																					0.131	0.156	0.457	0.231	0.167	0.132	0.159	0.204	0.172	0.407	0.460	0.528
791																																																																																					0.130	0.154	0.449	0.228	0.165	0.130	0.158	0.202	0.170	0.404	0.456	0.524
792																																																																																					0.129	0.152	0.439	0.224	0.163	0.129	0.156	0.200	0.168	0.400	0.452	0.520
793																																																																																					0.128	0.151	0.432	0.221	0.161	0.127	0.155	0.198	0.167	0.397	0.449	0.517
794																																																																																					0.127	0.149	0.424	0.217	0.159	0.126	0.153	0.196	0.165	0.393	0.445	0.513
795																																																																																					0.125	0.148	0.416	0.214	0.156	0.124	0.151	0.194	0.163	0.389	0.441	0.509
796																																																																																					0.124	0.147	0.409	0.211	0.155	0.124	0.150	0.193	0.162	0.387	0.438	0.506
797																																																																																					0.123	0.145	0.402	0.208	0.153	0.122	0.148	0.191	0.160	0.383	0.435	0.502
798																																																																																					0.122	0.143	0.394	0.205	0.151	0.121	0.147	0.189	0.159	0.380	0.431	0.498
799																																																																																					0.121	0.142	0.387	0.202	0.149	0.120	0.146	0.187	0.157	0.377	0.428	0.495
800																																																																																					0.120	0.141	0.380	0.199	0.148	0.118	0.144	0.186	0.155	0.373	0.424	0.491
801																																																																																					0.119	0.139	0.373	0.196	0.146	0.117	0.143	0.184	0.154	0.370	0.421	0.488
802																																																																																					0.118	0.138	0.367	0.194	0.144	0.116	0.141	0.183	0.153	0.367	0.418	0.484
803																																																																																					0.117	0.137	0.361	0.191	0.143	0.115	0.140	0.181	0.152	0.364	0.415	0.481
804																																																																																					0.117	0.135	0.354	0.188	0.141	0.114	0.139	0.179	0.150	0.361	0.411	0.478
805																																																																																					0.116	0.134	0.348	0.186	0.140	0.113	0.138	0.178	0.149	0.358	0.408	0.474
806																																																																																					0.115	0.133	0.342	0.183	0.138	0.112	0.137	0.176	0.148	0.355	0.405	0.471
807																																																																																					0.114	0.132	0.336	0.181	0.137	0.111	0.135	0.175	0.146	0.352	0.402	0.468
808																																																																																					0.113	0.131	0.331	0.179	0.135	0.110	0.134	0.174	0.145	0.350	0.400	0.465
809																																																																																					0.112	0.130	0.326	0.176	0.134	0.109	0.134	0.172	0.144	0.347	0.397	0.462
810																																																																																					0.112	0.129	0.320	0.174	0.133	0.108	0.132	0.171	0.143	0.344	0.394	0.460
811																																																																																					0.111	0.127	0.315	0.172	0.132	0.107	0.131	0.169	0.142	0.341	0.391	0.456
812																																																																																					0.110	0.127	0.309	0.170	0.130	0.107	0.130	0.169	0.141	0.339	0.388	0.453
813																																																																																					0.109	0.125	0.304	0.168	0.129	0.105	0.129	0.167	0.140	0.336	0.385	0.450
814																																																																																					0.108	0.124	0.299	0.166	0.128	0.105	0.128	0.166	0.139	0.333	0.382	0.447
815																																																																																					0.108	0.123	0.294	0.164	0.127	0.104	0.127	0.165	0.138	0.331	0.379	0.444
816																																																																																					0.107	0.122	0.289	0.161	0.125	0.103	0.126	0.163	0.137	0.328	0.376	0.441
817																																																																																					0.106	0.121	0.284	0.160	0.124	0.102	0.125	0.162	0.136	0.326	0.374	0.439
818																																																																																					0.106	0.120	0.280	0.158	0.123	0.102	0.124	0.161	0.135	0.323	0.371	0.436
819																																																																																					0.105	0.119	0.275	0.156	0.122	0.101	0.123	0.160	0.134	0.321	0.369	0.433
820																																																																																					0.105	0.118	0.269	0.154	0.121	0.100	0.122	0.158	0.133	0.318	0.365	0.430
821																																																																																					0.104	0.117	0.264	0.152	0.120	0.099	0.121	0.157	0.132	0.315	0.362	0.427
822																																																																																					0.103	0.117	0.260	0.150	0.119	0.098	0.120	0.156	0.131	0.313	0.360	0.424
823																																																																																					0.103	0.116	0.258	0.149	0.118	0.098	0.120	0.155	0.131	0.312	0.358	0.422
824																																																																																					0.103	0.116	0.256	0.148	0.118	0.098	0.120	0.155	0.130	0.310	0.357	0.421
825																																																																																					0.102	0.116	0.254	0.148	0.117	0.098	0.120	0.154	0.130	0.309	0.356	0.419
826																																																																																					0.102	0.115	0.249	0.146	0.116	0.097	0.119	0.153	0.130	0.306	0.353	0.416
827																																																																																					0.102	0.114	0.245	0.144	0.116	0.097	0.118	0.152	0.129	0.304	0.351	0.413
828																																																																																					0.102	0.114	0.241	0.143	0.115	0.096	0.118	0.152	0.128	0.303	0.349	0.411
829																																																																																					0.101	0.114	0.239	0.143	0.115	0.096	0.118	0.151	0.128	0.301	0.347	0.410
830																																																																																					0.101	0.113	0.237	0.142	0.114	0.096	0.117	0.151	0.128	0.300	0.346	0.408
831																																																																																					0.101	0.113	0.233	0.141	0.114	0.095	0.117	0.150	0.128	0.298	0.344	0.406
832																																																																																					0.101	0.112	0.228	0.139	0.113	0.095	0.116	0.149	0.127	0.296	0.341	0.403
833																																																																																					0.100	0.112	0.224	0.138	0.112	0.094	0.115	0.148	0.126	0.293	0.338	0.400
834																																																																																					0.100	0.111	0.222	0.137	0.112	0.094	0.115	0.147	0.126	0.292	0.337	0.398
835																																																																																					0.100	0.111	0.220	0.136	0.111	0.094	0.115	0.147	0.126	0.290	0.335	0.396
836																																																																																					0.099	0.111	0.217	0.135	0.111	0.093	0.114	0.146	0.125	0.289	0.334	0.394
837																																																																																					0.099	0.110	0.215	0.134	0.110	0.093	0.114	0.146	0.125	0.287	0.332	0.393
838																																																																																					0.099	0.109	0.211	0.133	0.109	0.092	0.113	0.145	0.124	0.285	0.330	0.390
839																																																																																					0.098	0.109	0.208	0.131	0.108	0.092	0.112	0.144	0.123	0.283	0.327	0.388
840																																																																																					0.098	0.108	0.205	0.130	0.107	0.091	0.112	0.143	0.122	0.281	0.325	0.385
841																																																																																					0.098	0.108	0.203	0.129	0.107	0.091	0.111	0.142	0.122	0.279	0.323	0.384
842																																																																																					0.097	0.107	0.200	0.128	0.106	0.091	0.111	0.141	0.121	0.278	0.322	0.382
843																																																																																					0.097	0.106	0.198	0.127	0.106	0.090	0.110	0.141	0.121	0.276	0.320	0.379
844																																																																																					0.096	0.106	0.195	0.126	0.105	0.090	0.109	0.140	0.120	0.274	0.318	0.377
845																																																																																					0.096	0.105	0.192	0.125	0.104	0.089	0.109	0.139	0.119	0.272	0.316	0.375
846																																																																																					0.096	0.105	0.190	0.124	0.104	0.089	0.108	0.138	0.119	0.270	0.314	0.373
847																																																																																					0.095	0.104	0.187	0.123	0.104	0.088	0.108	0.138	0.118	0.269	0.312	0.371
848																																																																																					0.095	0.104	0.185	0.122	0.103	0.088	0.107	0.137	0.118	0.267	0.310	0.369
849																																																																																					0.095	0.103	0.183	0.121	0.102	0.088	0.107	0.136	0.117	0.265	0.308	0.367
850																																																																																					0.094	0.103	0.181	0.120	0.102	0.087	0.106	0.135	0.117	0.264	0.307	0.365
851																																																																																					0.094	0.102	0.178	0.120	0.101	0.087	0.106	0.135	0.117	0.262	0.305	0.363
852																																																																																					0.093	0.102	0.176	0.118	0.101	0.086	0.105	0.134	0.116	0.260	0.303	0.361
853																																																																																					0.093	0.101	0.174	0.118	0.100	0.086	0.105	0.133	0.116	0.259	0.302	0.360
854																																																																																					0.093	0.101	0.173	0.117	0.100	0.086	0.105	0.133	0.115	0.258	0.300	0.358
855																																																																																					0.093	0.101	0.171	0.116	0.099	0.086	0.104	0.132	0.115	0.256	0.298	0.356
856																																																																																					0.093	0.100	0.169	0.116	0.099	0.086	0.104	0.132	0.115	0.255	0.297	0.354
857																																																																																					0.092	0.100	0.167	0.115	0.099	0.085	0.103	0.131	0.114	0.253	0.295	0.352
858																																																																																					0.092	0.099	0.165	0.114	0.098	0.085	0.103	0.130	0.114	0.252	0.293	0.351
859																																																																																					0.092	0.099	0.163	0.114	0.097	0.085	0.103	0.130	0.113	0.250	0.292	0.349
860																																																																																					0.091	0.099	0.162	0.113	0.097	0.084	0.102	0.129	0.113	0.249	0.290	0.347
861																																																																																					0.091	0.099	0.160	0.113	0.097	0.084	0.102	0.129	0.112	0.247	0.289	0.346
862																																																																																					0.091	0.098	0.159	0.112	0.097	0.084	0.102	0.128	0.112	0.246	0.287	0.344
863																																																																																					0.091	0.098	0.157	0.112	0.096	0.084	0.102	0.128	0.112	0.245	0.286	0.343
864																																																																																					0.091	0.098	0.156	0.111	0.096	0.084	0.101	0.127	0.112	0.244	0.285	0.341
865																																																																																					0.091	0.098	0.154	0.111	0.096	0.084	0.101	0.127	0.112	0.243	0.283	0.340
866																																																																																					0.091	0.097	0.153	0.110	0.096	0.084	0.101	0.126	0.111	0.241	0.282	0.338
867																																																																																					0.091	0.097	0.152	0.110	0.095	0.084	0.101	0.126	0.112	0.240	0.281	0.337
868																																																																																					0.091	0.097	0.151	0.110	0.095	0.084	0.101	0.125	0.111	0.239	0.279	0.336
869																																																																																					0.091	0.097	0.150	0.110	0.095	0.084	0.101	0.125	0.111	0.238	0.278	0.335
870																																																																																					0.091	0.097	0.149	0.109	0.095	0.084	0.101	0.125	0.111	0.237	0.277	0.333
871																																																																																					0.091	0.097	0.148	0.109	0.095	0.084	0.101	0.125	0.111	0.236	0.276	0.332
872																																																																																					0.091	0.097	0.147	0.109	0.095	0.084	0.101	0.124	0.111	0.236	0.275	0.331
873																																																																																					0.091	0.097	0.146	0.108	0.095	0.084	0.101	0.124	0.111	0.235	0.274	0.330
874																																																																																					0.092	0.097	0.145	0.108	0.095	0.084	0.101	0.124	0.111	0.234	0.273	0.329
875																																																																																					0.092	0.096	0.144	0.108	0.095	0.084	0.101	0.124	0.111	0.233	0.272	0.327
876																																																																																					0.092	0.096	0.143	0.108	0.095	0.084	0.101	0.123	0.111	0.232	0.270	0.326
877																																																																																					0.091	0.096	0.141	0.107	0.094	0.084	0.100	0.123	0.110	0.230	0.269	0.324
878																																																																																					0.091	0.095	0.140	0.106	0.094	0.083	0.100	0.122	0.110	0.229	0.267	0.323
879																																																																																					0.090	0.094	0.138	0.105	0.093	0.082	0.099	0.121	0.108	0.227	0.265	0.321
880																																																																																					0.089	0.094	0.136	0.104	0.092	0.082	0.098	0.120	0.108	0.225	0.263	0.319
881																																																																																					0.089	0.094	0.136	0.104	0.092	0.082	0.098	0.120	0.108	0.224	0.262	0.317
882																																																																																					0.089	0.094	0.135	0.104	0.092	0.082	0.098	0.120	0.108	0.223	0.262	0.316
883																																																																																					0.088	0.094	0.134	0.103	0.092	0.081	0.098	0.119	0.108	0.222	0.261	0.315
884																																																																																					0.088	0.093	0.134	0.103	0.091	0.081	0.098	0.119	0.107	0.221	0.260	0.313
885																																																																																					0.088	0.093	0.133	0.103	0.091	0.081	0.098	0.118	0.107	0.220	0.259	0.312
886																																																																																					0.088	0.093	0.131	0.102	0.091	0.080	0.097	0.117	0.106	0.218	0.257	0.310
887																																																																																					0.087	0.092	0.130	0.101	0.090	0.080	0.096	0.117	0.106	0.217	0.255	0.309
888																																																																																					0.087	0.092	0.129	0.101	0.090	0.079	0.096	0.117	0.105	0.216	0.254	0.307
889																																																																																					0.087	0.092	0.128	0.100	0.090	0.079	0.095	0.116	0.105	0.215	0.253	0.306
890																																																																																					0.087	0.092	0.127	0.100	0.090	0.079	0.095	0.116	0.105	0.214	0.252	0.305
891																																																																																					0.087	0.091	0.126	0.100	0.089	0.079	0.095	0.115	0.105	0.213	0.250	0.303
892																																																																																					0.087	0.091	0.125	0.099	0.089	0.079	0.095	0.115	0.104	0.212	0.249	0.302
893																																																																																					0.086	0.091	0.124	0.099	0.089	0.078	0.094	0.115	0.104	0.211	0.247	0.301
894																																																																																					0.086	0.091	0.123	0.098	0.089	0.078	0.094	0.114	0.104	0.210	0.246	0.299
895																																																																																					0.086	0.090	0.123	0.098	0.088	0.078	0.094	0.114	0.104	0.209	0.246	0.298
896																																																																																					0.086	0.091	0.122	0.099	0.089	0.078	0.094	0.114	0.104	0.208	0.245	0.297
897																																																																																					0.086	0.090	0.122	0.099	0.089	0.078	0.094	0.113	0.104	0.207	0.245	0.296
898																																																																																					0.086	0.090	0.121	0.099	0.088	0.078	0.094	0.113	0.104	0.206	0.244	0.295
899																																																																																					0.086	0.090	0.121	0.098	0.088	0.078	0.094	0.113	0.103	0.205	0.242	0.294
900																																																																																					0.086	0.090	0.120	0.098	0.088	0.078	0.093	0.113	0.103	0.205	0.241	0.293
901																																																																																					0.086	0.090	0.119	0.097	0.088	0.078	0.093	0.112	0.103	0.204	0.240	0.292
902																																																																																					0.086	0.090	0.118	0.097	0.088	0.078	0.093	0.112	0.103	0.203	0.239	0.291
903																																																																																					0.086	0.090	0.118	0.097	0.088	0.078	0.093	0.112	0.103	0.202	0.237	0.289
904																																																																																					0.086	0.090	0.118	0.097	0.088	0.078	0.093	0.112	0.103	0.201	0.237	0.288
905																																																																																					0.086	0.090	0.118	0.097	0.088	0.078	0.093	0.111	0.103	0.201	0.237	0.288
906																																																																																					0.086	0.090	0.117	0.097	0.088	0.078	0.094	0.112	0.103	0.200	0.236	0.287
907																																																																																					0.086	0.090	0.117	0.097	0.088	0.078	0.094	0.111	0.103	0.200	0.236	0.286
908																																																																																					0.086	0.090	0.117	0.098	0.088	0.078	0.094	0.111	0.103	0.199	0.235	0.285
909																																																																																					0.086	0.090	0.116	0.097	0.088	0.078	0.093	0.111	0.103	0.198	0.234	0.284
910																																																																																					0.087	0.091	0.116	0.098	0.089	0.079	0.094	0.111	0.103	0.198	0.233	0.284
911																																																																																					0.087	0.090	0.116	0.097	0.089	0.079	0.094	0.111	0.103	0.197	0.232	0.283
912																																																																																					0.087	0.091	0.116	0.098	0.089	0.079	0.094	0.111	0.104	0.197	0.232	0.282
913																																																																																					0.088	0.091	0.116	0.098	0.090	0.079	0.094	0.111	0.104	0.197	0.231	0.282
914																																																																																					0.088	0.091	0.115	0.098	0.090	0.079	0.094	0.112	0.104	0.197	0.230	0.281
915																																																																																					0.088	0.092	0.115	0.098	0.090	0.080	0.095	0.112	0.104	0.196	0.230	0.280
916																																																																																					0.088	0.092	0.115	0.099	0.090	0.080	0.095	0.112	0.105	0.196	0.230	0.280
917																																																																																					0.088	0.092	0.116	0.099	0.091	0.080	0.096	0.112	0.105	0.195	0.229	0.279
918																																																																																					0.089	0.093	0.116	0.100	0.091	0.081	0.096	0.112	0.106	0.195	0.230	0.279
919																																																																																					0.090	0.093	0.116	0.101	0.091	0.081	0.097	0.112	0.106	0.195	0.229	0.279
920																																																																																					0.090	0.094	0.116	0.101	0.092	0.081	0.097	0.113	0.107	0.195	0.229	0.278
921																																																																																					0.091	0.095	0.117	0.102	0.093	0.082	0.098	0.113	0.108	0.196	0.229	0.278
922																																																																																					0.092	0.096	0.117	0.103	0.094	0.083	0.099	0.114	0.109	0.196	0.229	0.278
923																																																																																					0.093	0.097	0.118	0.104	0.095	0.084	0.099	0.115	0.110	0.196	0.229	0.278
924																																																																																					0.094	0.098	0.118	0.105	0.096	0.084	0.100	0.116	0.111	0.197	0.229	0.278
925																																																																																					0.095	0.099	0.119	0.106	0.097	0.085	0.101	0.117	0.112	0.197	0.230	0.279
926																																																																																					0.096	0.100	0.120	0.107	0.098	0.086	0.102	0.117	0.113	0.198	0.230	0.279
927																																																																																					0.097	0.101	0.121	0.109	0.100	0.087	0.104	0.119	0.115	0.199	0.231	0.280
928																																																																																					0.098	0.103	0.122	0.110	0.101	0.088	0.105	0.120	0.116	0.200	0.232	0.280
929																																																																																					0.099	0.104	0.123	0.111	0.102	0.089	0.106	0.121	0.117	0.201	0.232	0.281
930																																																																																					0.101	0.106	0.124	0.113	0.104	0.090	0.107	0.122	0.119	0.202	0.233	0.281
931																																																																																					0.102	0.107	0.126	0.115	0.105	0.092	0.109	0.124	0.120	0.203	0.234	0.282
932																																																																																					0.104	0.109	0.127	0.116	0.107	0.093	0.111	0.125	0.122	0.205	0.235	0.283
933																																																																																					0.106	0.111	0.129	0.118	0.109	0.094	0.112	0.127	0.124	0.206	0.237	0.284
934																																																																																					0.108	0.113	0.131	0.121	0.111	0.096	0.114	0.129	0.126	0.208	0.238	0.286
935																																																																																					0.109	0.115	0.132	0.122	0.113	0.097	0.116	0.131	0.128	0.210	0.239	0.287
936																																																																																					0.111	0.117	0.134	0.124	0.115	0.099	0.117	0.132	0.130	0.211	0.241	0.288
937																																																																																					0.113	0.119	0.135	0.127	0.117	0.100	0.119	0.134	0.132	0.213	0.242	0.289
938																																																																																					0.115	0.121	0.137	0.129	0.119	0.102	0.121	0.135	0.134	0.214	0.244	0.290
939																																																																																					0.116	0.123	0.139	0.131	0.121	0.103	0.123	0.137	0.136	0.216	0.245	0.291
940																																																																																					0.118	0.125	0.141	0.133	0.123	0.105	0.125	0.139	0.138	0.218	0.247	0.293
941																																																																																					0.120	0.128	0.143	0.136	0.126	0.106	0.127	0.141	0.141	0.220	0.249	0.295
942																																																																																					0.123	0.131	0.145	0.139	0.129	0.109	0.130	0.144	0.144	0.223	0.251	0.297
943																																																																																					0.126	0.134	0.148	0.142	0.131	0.111	0.132	0.146	0.147	0.226	0.254	0.299
944																																																																																					0.129	0.137	0.151	0.145	0.134	0.113	0.135	0.149	0.150	0.229	0.256	0.301
945																																																																																					0.131	0.140	0.153	0.148	0.138	0.115	0.138	0.152	0.153	0.232	0.259	0.304
946																																																																																					0.135	0.144	0.157	0.152	0.141	0.118	0.141	0.155	0.157	0.236	0.262	0.307
947																																																																																					0.138	0.148	0.160	0.156	0.145	0.121	0.145	0.159	0.161	0.239	0.266	0.310
948																																																																																					0.142	0.152	0.165	0.161	0.150	0.125	0.149	0.163	0.166	0.244	0.270	0.314
949																																																																																					0.146	0.157	0.169	0.166	0.154	0.128	0.153	0.167	0.170	0.249	0.274	0.318
950																																																																																					0.151	0.162	0.173	0.171	0.159	0.132	0.158	0.172	0.175	0.254	0.279	0.322
951																																																																																					0.155	0.167	0.177	0.175	0.163	0.135	0.162	0.176	0.180	0.258	0.283	0.326
952																																																																																					0.159	0.171	0.181	0.180	0.168	0.138	0.166	0.180	0.184	0.263	0.287	0.329
953																																																																																					0.163	0.176	0.186	0.185	0.172	0.142	0.170	0.184	0.189	0.268	0.291	0.334
954																																																																																					0.168	0.182	0.191	0.192	0.178	0.146	0.175	0.190	0.195	0.274	0.297	0.339
955																																																																																					0.173	0.188	0.196	0.198	0.184	0.150	0.180	0.195	0.201	0.280	0.302	0.344
956																																																																																					0.178	0.193	0.201	0.203	0.189	0.154	0.185	0.200	0.206	0.285	0.307	0.348
957																																																																																					0.182	0.198	0.205	0.208	0.194	0.158	0.189	0.204	0.211	0.290	0.311	0.352
958																																																																																					0.186	0.202	0.209	0.212	0.198	0.161	0.193	0.208	0.215	0.294	0.315	0.356
959																																																																																					0.189	0.205	0.212	0.215	0.201	0.163	0.196	0.211	0.219	0.297	0.318	0.359
960																																																																																					0.192	0.208	0.215	0.218	0.204	0.166	0.198	0.213	0.221	0.300	0.321	0.361
961																																																																																					0.193	0.210	0.217	0.221	0.206	0.167	0.201	0.215	0.224	0.302	0.322	0.363
962																																																																																					0.195	0.212	0.218	0.223	0.208	0.169	0.202	0.217	0.226	0.304	0.324	0.364
963																																																																																					0.196	0.213	0.219	0.224	0.209	0.170	0.203	0.218	0.227	0.305	0.325	0.365
964																																																																																					0.197	0.214	0.220	0.225	0.210	0.170	0.204	0.219	0.228	0.306	0.325	0.365
965																																																																																					0.198	0.215	0.221	0.226	0.211	0.171	0.205	0.219	0.229	0.307	0.325	0.365
966																																																																																					0.199	0.216	0.222	0.227	0.212	0.172	0.206	0.220	0.230	0.307	0.326	0.365
967																																																																																					0.199	0.216	0.222	0.227	0.212	0.172	0.206	0.221	0.230	0.307	0.326	0.365
968																																																																																					0.200	0.217	0.222	0.228	0.213	0.172	0.207	0.221	0.231	0.307	0.326	0.365
969																																																																																					0.200	0.217	0.222	0.228	0.213	0.172	0.207	0.221	0.231	0.307	0.325	0.365
970																																																																																					0.200	0.218	0.222	0.228	0.213	0.173	0.207	0.221	0.231	0.307	0.325	0.364
971																																																																																					0.200	0.218	0.223	0.229	0.214	0.173	0.207	0.221	0.232	0.307	0.325	0.364
972																																																																																					0.201	0.218	0.223	0.229	0.214	0.173	0.207	0.221	0.232	0.307	0.325	0.363
973																																																																																					0.201	0.218	0.223	0.229	0.214	0.173	0.208	0.222	0.232	0.307	0.324	0.363
974																																																																																					0.201	0.218	0.223	0.229	0.214	0.173	0.207	0.221	0.231	0.306	0.324	0.362
975																																																																																					0.201	0.218	0.222	0.229	0.214	0.173	0.207	0.221	0.231	0.306	0.323	0.362
976																																																																																					0.200	0.217	0.222	0.228	0.213	0.172	0.206	0.220	0.231	0.305	0.321	0.361
977																																																																																					0.199	0.216	0.221	0.227	0.212	0.172	0.206	0.220	0.230	0.304	0.320	0.359
978																																																																																					0.199	0.216	0.220	0.227	0.212	0.172	0.205	0.219	0.229	0.303	0.319	0.358
979																																																																																					0.199	0.216	0.220	0.227	0.212	0.171	0.205	0.219	0.229	0.302	0.319	0.357
980																																																																																					0.198	0.216	0.220	0.227	0.211	0.172	0.206	0.218	0.229	0.301	0.319	0.356
981																																																																																					0.198	0.216	0.219	0.227	0.211	0.171	0.206	0.218	0.229	0.300	0.318	0.355
982																																																																																					0.198	0.215	0.218	0.226	0.210	0.171	0.205	0.217	0.228	0.299	0.317	0.354
983																																																																																					0.197	0.214	0.217	0.224	0.209	0.170	0.204	0.216	0.227	0.298	0.315	0.352
984																																																																																					0.195	0.212	0.216	0.223	0.208	0.169	0.202	0.214	0.225	0.296	0.313	0.350
985																																																																																					0.194	0.211	0.214	0.221	0.206	0.167	0.201	0.213	0.224	0.294	0.310	0.348
986																																																																																					0.192	0.209	0.212	0.219	0.205	0.166	0.199	0.211	0.222	0.292	0.308	0.345
987																																																																																					0.191	0.207	0.211	0.218	0.203	0.165	0.198	0.210	0.220	0.290	0.306	0.344
988																																																																																					0.190	0.205	0.209	0.215	0.201	0.163	0.196	0.208	0.218	0.287	0.303	0.341
989																																																																																					0.188	0.203	0.207	0.213	0.200	0.162	0.194	0.206	0.216	0.285	0.300	0.339
990																																																																																					0.186	0.201	0.206	0.212	0.198	0.161	0.192	0.205	0.214	0.283	0.298	0.336
991																																																																																					0.185	0.201	0.204	0.211	0.197	0.160	0.191	0.204	0.213	0.281	0.297	0.334
992																																																																																					0.184	0.200	0.204	0.210	0.196	0.160	0.191	0.203	0.213	0.279	0.296	0.333
993																																																																																					0.183	0.200	0.203	0.210	0.195	0.159	0.191	0.202	0.212	0.278	0.295	0.331
994																																																																																					0.183	0.199	0.202	0.209	0.195	0.159	0.190	0.201	0.211	0.277	0.294	0.330
995																																																																																					0.182	0.198	0.201	0.207	0.193	0.158	0.190	0.200	0.210	0.275	0.292	0.328
996																																																																																					0.181	0.196	0.199	0.205	0.192	0.156	0.188	0.198	0.208	0.273	0.290	0.326
997																																																																																					0.178	0.193	0.197	0.203	0.189	0.154	0.185	0.196	0.205	0.270	0.287	0.323
998																																																																																					0.176	0.191	0.194	0.201	0.187	0.153	0.182	0.193	0.203	0.267	0.284	0.320
999																																																																																					0.174	0.189	0.192	0.199	0.185	0.151	0.181	0.191	0.201	0.264	0.281	0.318

结果
	1	2	3	4	5	6	7	8	9	10	11	12
A	?????	?????	?????	?????	?????	?????	?????	?????	?????	?????	?????	?????	Mean Max OD [Spectrum]
B	?????	?????	?????	?????	?????	?????	?????	?????	?????	?????	?????	?????	Mean Max OD [Spectrum]
C	?????	?????	?????	?????	?????	?????	?????	?????	?????	?????	?????	?????	Mean Max OD [Spectrum]
D	?????	?????	?????	?????	?????	?????	?????	?????	?????	?????	?????	?????	Mean Max OD [Spectrum]
E	?????	?????	?????	?????	?????	?????	?????	?????	?????	?????	?????	?????	Mean Max OD [Spectrum]
F	?????	?????	?????	?????	?????	?????	?????	?????	?????	?????	?????	?????	Mean Max OD [Spectrum]
G	?????	?????	?????	?????	?????	?????	?????	?????	?????	?????	?????	?????	Mean Max OD [Spectrum]
H	0.932	1.109	1.690	1.364	1.196	0.887	1.035	0.991	0.972	1.348	1.229	1.140	Mean Max OD [Spectrum]

