

软件版本	3.11.19



实验文件路径:	
方案文件路径:	



板编号	板 1
日期	2023/4/9
时间	10:57:20
检测仪类型:	Epoch 2
检测仪序列号:	2205170B
检测类型	检测仪

程序详细信息

板类型	96 WELL PLATE
完成后弹出板	
检测	吸收光 光谱
	A1..A12
	开始: 400 nm,  停止: 999 nm,  步骤: 1 nm
	检测前校准
	检测速度: 正常,  延迟: 100 msec,  测量值/数据点: 8

Spectrum

波长	A1	A2	A3	A4	A5	A6	A7	A8	A9	A10	A11	A12	B1	B2	B3	B4	B5	B6	B7	B8	B9	B10	B11	B12	C1	C2	C3	C4	C5	C6	C7	C8	C9	C10	C11	C12	D1	D2	D3	D4	D5	D6	D7	D8	D9	D10	D11	D12	E1	E2	E3	E4	E5	E6	E7	E8	E9	E10	E11	E12	F1	F2	F3	F4	F5	F6	F7	F8	F9	F10	F11	F12	G1	G2	G3	G4	G5	G6	G7	G8	G9	G10	G11	G12	H1	H2	H3	H4	H5	H6	H7	H8	H9	H10	H11	H12
400	0.556	0.607	0.500	0.527	0.520	0.485	0.641	0.625	0.531	0.599	0.561	0.558																																																																																				
401	0.555	0.606	0.498	0.526	0.519	0.484	0.639	0.624	0.530	0.598	0.559	0.557																																																																																				
402	0.554	0.604	0.497	0.524	0.517	0.482	0.637	0.622	0.529	0.596	0.558	0.555																																																																																				
403	0.552	0.603	0.496	0.523	0.516	0.481	0.636	0.620	0.527	0.595	0.556	0.554																																																																																				
404	0.551	0.601	0.494	0.522	0.515	0.480	0.634	0.619	0.526	0.593	0.555	0.552																																																																																				
405	0.549	0.600	0.493	0.520	0.513	0.479	0.632	0.617	0.525	0.592	0.554	0.551																																																																																				
406	0.548	0.598	0.492	0.519	0.512	0.477	0.631	0.616	0.524	0.590	0.552	0.549																																																																																				
407	0.547	0.597	0.491	0.518	0.511	0.476	0.629	0.614	0.522	0.589	0.551	0.548																																																																																				
408	0.545	0.595	0.490	0.516	0.510	0.475	0.628	0.613	0.521	0.587	0.550	0.547																																																																																				
409	0.544	0.594	0.489	0.515	0.509	0.474	0.626	0.611	0.520	0.586	0.548	0.546																																																																																				
410	0.543	0.593	0.487	0.514	0.507	0.473	0.625	0.610	0.519	0.584	0.547	0.544																																																																																				
411	0.542	0.591	0.486	0.513	0.506	0.472	0.623	0.608	0.518	0.583	0.546	0.543																																																																																				
412	0.540	0.590	0.485	0.512	0.505	0.470	0.622	0.607	0.516	0.582	0.545	0.542																																																																																				
413	0.539	0.588	0.484	0.510	0.504	0.469	0.620	0.605	0.515	0.580	0.543	0.540																																																																																				
414	0.538	0.587	0.483	0.509	0.503	0.468	0.619	0.604	0.514	0.579	0.542	0.539																																																																																				
415	0.536	0.586	0.482	0.508	0.501	0.467	0.617	0.603	0.513	0.578	0.541	0.538																																																																																				
416	0.535	0.584	0.481	0.507	0.500	0.466	0.616	0.601	0.512	0.576	0.540	0.537																																																																																				
417	0.534	0.583	0.480	0.506	0.499	0.465	0.615	0.600	0.511	0.575	0.539	0.535																																																																																				
418	0.533	0.582	0.479	0.504	0.498	0.464	0.613	0.598	0.510	0.574	0.538	0.534																																																																																				
419	0.532	0.580	0.478	0.503	0.497	0.463	0.612	0.597	0.509	0.572	0.536	0.533																																																																																				
420	0.531	0.579	0.477	0.502	0.496	0.462	0.611	0.596	0.508	0.571	0.535	0.532																																																																																				
421	0.530	0.578	0.476	0.501	0.495	0.461	0.609	0.595	0.507	0.570	0.534	0.531																																																																																				
422	0.529	0.577	0.475	0.500	0.494	0.460	0.608	0.593	0.506	0.569	0.533	0.530																																																																																				
423	0.528	0.576	0.474	0.500	0.493	0.460	0.607	0.593	0.505	0.568	0.533	0.529																																																																																				
424	0.527	0.575	0.473	0.498	0.492	0.459	0.606	0.591	0.504	0.567	0.532	0.528																																																																																				
425	0.526	0.573	0.472	0.497	0.491	0.458	0.605	0.590	0.503	0.566	0.531	0.527																																																																																				
426	0.525	0.572	0.471	0.497	0.491	0.457	0.604	0.589	0.502	0.565	0.530	0.526																																																																																				
427	0.524	0.571	0.471	0.496	0.490	0.456	0.603	0.588	0.502	0.564	0.529	0.525																																																																																				
428	0.523	0.570	0.470	0.495	0.489	0.455	0.602	0.587	0.501	0.563	0.528	0.524																																																																																				
429	0.522	0.569	0.469	0.494	0.488	0.454	0.600	0.586	0.500	0.561	0.527	0.523																																																																																				
430	0.520	0.568	0.468	0.493	0.487	0.454	0.599	0.585	0.499	0.560	0.526	0.522																																																																																				
431	0.520	0.567	0.467	0.492	0.486	0.453	0.598	0.584	0.498	0.559	0.525	0.521																																																																																				
432	0.518	0.565	0.466	0.491	0.485	0.452	0.597	0.582	0.497	0.558	0.524	0.521																																																																																				
433	0.517	0.564	0.465	0.490	0.484	0.451	0.596	0.581	0.496	0.558	0.523	0.520																																																																																				
434	0.517	0.563	0.464	0.489	0.483	0.450	0.595	0.580	0.495	0.557	0.522	0.519																																																																																				
435	0.516	0.563	0.463	0.488	0.483	0.450	0.594	0.579	0.494	0.556	0.521	0.518																																																																																				
436	0.515	0.561	0.462	0.487	0.482	0.449	0.593	0.578	0.494	0.555	0.521	0.517																																																																																				
437	0.514	0.560	0.461	0.486	0.481	0.448	0.592	0.578	0.493	0.554	0.520	0.516																																																																																				
438	0.513	0.559	0.461	0.485	0.480	0.447	0.591	0.576	0.492	0.553	0.519	0.515																																																																																				
439	0.512	0.558	0.460	0.485	0.479	0.447	0.590	0.575	0.491	0.552	0.518	0.515																																																																																				
440	0.511	0.557	0.459	0.484	0.479	0.446	0.589	0.575	0.490	0.551	0.517	0.514																																																																																				
441	0.510	0.557	0.458	0.483	0.478	0.445	0.589	0.574	0.490	0.551	0.517	0.513																																																																																				
442	0.509	0.556	0.457	0.483	0.478	0.445	0.588	0.573	0.489	0.550	0.516	0.513																																																																																				
443	0.508	0.555	0.457	0.482	0.477	0.444	0.587	0.572	0.489	0.549	0.515	0.512																																																																																				
444	0.508	0.554	0.456	0.481	0.476	0.444	0.586	0.571	0.488	0.548	0.515	0.511																																																																																				
445	0.507	0.553	0.455	0.480	0.475	0.443	0.585	0.571	0.487	0.548	0.514	0.511																																																																																				
446	0.506	0.552	0.455	0.480	0.475	0.443	0.585	0.570	0.487	0.547	0.513	0.510																																																																																				
447	0.505	0.551	0.454	0.479	0.474	0.442	0.584	0.569	0.486	0.546	0.513	0.510																																																																																				
448	0.505	0.550	0.453	0.478	0.474	0.441	0.583	0.569	0.486	0.546	0.512	0.509																																																																																				
449	0.504	0.550	0.453	0.478	0.473	0.441	0.582	0.568	0.485	0.545	0.512	0.509																																																																																				
450	0.503	0.549	0.452	0.477	0.473	0.440	0.582	0.567	0.485	0.545	0.511	0.508																																																																																				
451	0.502	0.548	0.451	0.476	0.472	0.440	0.581	0.567	0.484	0.544	0.511	0.507																																																																																				
452	0.502	0.547	0.451	0.476	0.472	0.440	0.581	0.566	0.484	0.544	0.510	0.507																																																																																				
453	0.501	0.547	0.450	0.475	0.471	0.439	0.580	0.565	0.483	0.543	0.510	0.507																																																																																				
454	0.501	0.546	0.450	0.475	0.471	0.439	0.580	0.565	0.483	0.543	0.509	0.506																																																																																				
455	0.500	0.545	0.449	0.474	0.471	0.438	0.579	0.564	0.483	0.542	0.509	0.506																																																																																				
456	0.499	0.545	0.449	0.474	0.470	0.438	0.579	0.564	0.482	0.542	0.508	0.505																																																																																				
457	0.499	0.544	0.448	0.473	0.470	0.438	0.578	0.563	0.482	0.541	0.508	0.505																																																																																				
458	0.499	0.544	0.448	0.473	0.470	0.438	0.578	0.563	0.482	0.541	0.508	0.505																																																																																				
459	0.498	0.543	0.447	0.473	0.469	0.437	0.578	0.563	0.481	0.541	0.507	0.505																																																																																				
460	0.498	0.543	0.447	0.473	0.469	0.437	0.578	0.563	0.481	0.541	0.507	0.505																																																																																				
461	0.498	0.543	0.447	0.473	0.469	0.437	0.578	0.563	0.482	0.541	0.507	0.505																																																																																				
462	0.497	0.543	0.447	0.472	0.469	0.437	0.578	0.563	0.482	0.541	0.507	0.505																																																																																				
463	0.497	0.543	0.447	0.472	0.469	0.437	0.578	0.563	0.482	0.541	0.508	0.505																																																																																				
464	0.497	0.542	0.446	0.472	0.469	0.437	0.578	0.563	0.482	0.541	0.508	0.505																																																																																				
465	0.497	0.542	0.446	0.472	0.469	0.437	0.578	0.563	0.482	0.541	0.508	0.505																																																																																				
466	0.497	0.542	0.446	0.472	0.470	0.438	0.578	0.563	0.482	0.541	0.508	0.506																																																																																				
467	0.497	0.543	0.446	0.472	0.470	0.438	0.578	0.563	0.483	0.542	0.508	0.506																																																																																				
468	0.497	0.543	0.446	0.473	0.470	0.438	0.579	0.564	0.483	0.542	0.509	0.507																																																																																				
469	0.497	0.543	0.447	0.473	0.471	0.438	0.579	0.564	0.483	0.543	0.509	0.507																																																																																				
470	0.498	0.543	0.447	0.473	0.471	0.439	0.580	0.565	0.484	0.543	0.510	0.508																																																																																				
471	0.498	0.544	0.447	0.474	0.472	0.440	0.581	0.566	0.485	0.544	0.510	0.508																																																																																				
472	0.499	0.544	0.447	0.474	0.472	0.440	0.582	0.566	0.485	0.545	0.511	0.509																																																																																				
473	0.499	0.545	0.448	0.475	0.473	0.441	0.583	0.567	0.486	0.546	0.512	0.510																																																																																				
474	0.500	0.546	0.449	0.476	0.474	0.442	0.584	0.569	0.487	0.547	0.513	0.511																																																																																				
475	0.501	0.547	0.449	0.477	0.475	0.443	0.585	0.570	0.489	0.549	0.514	0.513																																																																																				
476	0.502	0.548	0.450	0.478	0.476	0.444	0.587	0.571	0.490	0.550	0.515	0.514																																																																																				
477	0.503	0.550	0.451	0.479	0.478	0.445	0.589	0.573	0.491	0.552	0.517	0.516																																																																																				
478	0.504	0.551	0.452	0.481	0.479	0.447	0.591	0.575	0.493	0.554	0.518	0.517																																																																																				
479	0.506	0.553	0.454	0.482	0.481	0.448	0.593	0.577	0.495	0.556	0.520	0.519																																																																																				
480	0.508	0.555	0.455	0.484	0.483	0.450	0.595	0.579	0.497	0.558	0.522	0.521																																																																																				
481	0.510	0.557	0.457	0.486	0.485	0.453	0.598	0.582	0.499	0.561	0.525	0.524																																																																																				
482	0.513	0.560	0.459	0.488	0.488	0.455	0.602	0.585	0.502	0.564	0.527	0.527																																																																																				
483	0.515	0.563	0.461	0.490	0.490	0.457	0.604	0.587	0.504	0.566	0.529	0.529																																																																																				
484	0.517	0.565	0.462	0.492	0.492	0.459	0.607	0.590	0.506	0.569	0.531	0.532																																																																																				
485	0.519	0.567	0.464	0.494	0.494	0.460	0.609	0.593	0.509	0.571	0.533	0.534																																																																																				
486	0.521	0.570	0.466	0.497	0.497	0.463	0.613	0.596	0.512	0.575	0.536	0.537																																																																																				
487	0.525	0.574	0.469	0.500	0.501	0.466	0.617	0.601	0.515	0.579	0.540	0.541																																																																																				
488	0.528	0.578	0.472	0.503	0.504	0.469	0.621	0.604	0.518	0.583	0.543	0.544																																																																																				
489	0.531	0.582	0.474	0.506	0.507	0.472	0.625	0.608	0.522	0.586	0.546	0.548																																																																																				
490	0.535	0.586	0.477	0.510	0.511	0.476	0.630	0.613	0.526	0.591	0.550	0.552																																																																																				
491	0.540	0.591	0.481	0.514	0.516	0.480	0.636	0.618	0.531	0.597	0.555	0.557																																																																																				
492	0.544	0.596	0.484	0.518	0.519	0.483	0.640	0.622	0.534	0.601	0.559	0.561																																																																																				
493	0.548	0.600	0.487	0.521	0.523	0.487	0.645	0.627	0.538	0.605	0.563	0.565																																																																																				
494	0.552	0.605	0.490	0.526	0.527	0.491	0.650	0.632	0.543	0.610	0.567	0.570																																																																																				
495	0.558	0.612	0.495	0.531	0.533	0.496	0.657	0.639	0.548	0.617	0.572	0.576																																																																																				
496	0.564	0.618	0.499	0.536	0.539	0.501	0.664	0.645	0.554	0.623	0.578	0.582																																																																																				
497	0.570	0.625	0.504	0.541	0.544	0.506	0.671	0.652	0.559	0.629	0.583	0.588																																																																																				
498	0.574	0.630	0.507	0.545	0.548	0.510	0.676	0.656	0.564	0.634	0.587	0.592																																																																																				
499	0.578	0.635	0.510	0.549	0.552	0.514	0.682	0.662	0.568	0.639	0.592	0.596																																																																																				
500	0.583	0.640	0.514	0.553	0.557	0.518	0.687	0.667	0.573	0.645	0.597	0.601																																																																																				
501	0.588	0.646	0.518	0.558	0.562	0.523	0.694	0.673	0.578	0.650	0.601	0.607																																																																																				
502	0.593	0.652	0.521	0.562	0.567	0.527	0.700	0.679	0.583	0.656	0.606	0.612																																																																																				
503	0.598	0.658	0.525	0.567	0.572	0.532	0.706	0.684	0.588	0.661	0.611	0.617																																																																																				
504	0.603	0.663	0.528	0.571	0.577	0.536	0.712	0.690	0.593	0.667	0.615	0.622																																																																																				
505	0.607	0.668	0.531	0.575	0.581	0.540	0.717	0.695	0.597	0.672	0.619	0.627																																																																																				
506	0.611	0.673	0.534	0.579	0.586	0.544	0.722	0.700	0.602	0.677	0.624	0.631																																																																																				
507	0.615	0.677	0.536	0.582	0.589	0.548	0.727	0.705	0.606	0.682	0.627	0.636																																																																																				
508	0.618	0.681	0.539	0.585	0.593	0.551	0.732	0.709	0.610	0.686	0.631	0.640																																																																																				
509	0.621	0.685	0.540	0.588	0.597	0.555	0.736	0.713	0.613	0.690	0.634	0.643																																																																																				
510	0.624	0.689	0.542	0.591	0.600	0.558	0.740	0.717	0.617	0.694	0.638	0.647																																																																																				
511	0.626	0.691	0.543	0.593	0.603	0.560	0.744	0.720	0.620	0.697	0.640	0.650																																																																																				
512	0.628	0.693	0.544	0.594	0.605	0.563	0.747	0.723	0.622	0.700	0.642	0.653																																																																																				
513	0.629	0.695	0.544	0.595	0.607	0.564	0.749	0.725	0.624	0.702	0.644	0.655																																																																																				
514	0.629	0.696	0.545	0.596	0.608	0.566	0.751	0.727	0.626	0.704	0.646	0.657																																																																																				
515	0.630	0.697	0.544	0.597	0.610	0.567	0.752	0.728	0.627	0.706	0.647	0.658																																																																																				
516	0.630	0.697	0.544	0.597	0.611	0.568	0.754	0.729	0.628	0.707	0.647	0.659																																																																																				
517	0.629	0.696	0.542	0.597	0.611	0.568	0.754	0.729	0.629	0.708	0.648	0.660																																																																																				
518	0.628	0.696	0.541	0.596	0.611	0.569	0.755	0.729	0.629	0.708	0.648	0.660																																																																																				
519	0.627	0.694	0.540	0.596	0.611	0.569	0.754	0.729	0.629	0.708	0.647	0.660																																																																																				
520	0.625	0.693	0.538	0.594	0.611	0.568	0.754	0.728	0.629	0.707	0.647	0.660																																																																																				
521	0.623	0.691	0.536	0.593	0.610	0.567	0.753	0.727	0.628	0.707	0.646	0.659																																																																																				
522	0.621	0.688	0.534	0.591	0.609	0.566	0.751	0.726	0.627	0.705	0.644	0.658																																																																																				
523	0.618	0.685	0.531	0.589	0.607	0.565	0.749	0.724	0.626	0.703	0.643	0.656																																																																																				
524	0.615	0.682	0.528	0.586	0.605	0.563	0.747	0.721	0.624	0.701	0.640	0.654																																																																																				
525	0.611	0.678	0.525	0.583	0.603	0.561	0.744	0.718	0.622	0.699	0.638	0.652																																																																																				
526	0.607	0.674	0.521	0.580	0.600	0.559	0.741	0.715	0.619	0.696	0.635	0.649																																																																																				
527	0.603	0.670	0.518	0.577	0.597	0.556	0.737	0.711	0.616	0.692	0.632	0.646																																																																																				
528	0.600	0.666	0.515	0.574	0.595	0.554	0.734	0.708	0.614	0.690	0.629	0.644																																																																																				
529	0.597	0.663	0.512	0.571	0.592	0.551	0.731	0.705	0.611	0.687	0.626	0.641																																																																																				
530	0.593	0.659	0.508	0.568	0.590	0.549	0.727	0.702	0.608	0.683	0.624	0.638																																																																																				
531	0.589	0.654	0.504	0.564	0.586	0.546	0.723	0.697	0.605	0.679	0.620	0.634																																																																																				
532	0.583	0.648	0.499	0.559	0.581	0.541	0.717	0.691	0.600	0.674	0.615	0.629																																																																																				
533	0.578	0.642	0.495	0.555	0.577	0.537	0.712	0.686	0.595	0.669	0.610	0.625																																																																																				
534	0.573	0.637	0.491	0.550	0.573	0.534	0.706	0.681	0.591	0.664	0.606	0.620																																																																																				
535	0.568	0.631	0.486	0.545	0.568	0.529	0.700	0.675	0.586	0.658	0.601	0.615																																																																																				
536	0.563	0.625	0.482	0.540	0.563	0.525	0.694	0.669	0.581	0.652	0.595	0.610																																																																																				
537	0.557	0.619	0.477	0.535	0.558	0.520	0.687	0.663	0.576	0.646	0.590	0.604																																																																																				
538	0.551	0.613	0.471	0.529	0.552	0.515	0.680	0.656	0.570	0.639	0.584	0.598																																																																																				
539	0.546	0.606	0.466	0.524	0.547	0.510	0.673	0.649	0.564	0.633	0.578	0.592																																																																																				
540	0.539	0.599	0.461	0.517	0.541	0.504	0.665	0.641	0.558	0.626	0.571	0.584																																																																																				
541	0.534	0.593	0.456	0.512	0.535	0.499	0.659	0.635	0.552	0.619	0.565	0.579																																																																																				
542	0.528	0.587	0.452	0.507	0.530	0.494	0.652	0.628	0.547	0.613	0.560	0.573																																																																																				
543	0.523	0.582	0.447	0.502	0.525	0.490	0.646	0.622	0.541	0.607	0.554	0.567																																																																																				
544	0.517	0.575	0.442	0.496	0.519	0.484	0.638	0.614	0.535	0.599	0.548	0.560																																																																																				
545	0.510	0.567	0.436	0.489	0.512	0.477	0.629	0.606	0.528	0.591	0.540	0.552																																																																																				
546	0.504	0.560	0.430	0.483	0.505	0.471	0.621	0.598	0.521	0.583	0.533	0.545																																																																																				
547	0.498	0.553	0.425	0.477	0.499	0.465	0.612	0.590	0.514	0.575	0.526	0.537																																																																																				
548	0.492	0.546	0.420	0.470	0.492	0.459	0.604	0.582	0.507	0.568	0.519	0.530																																																																																				
549	0.486	0.540	0.415	0.465	0.486	0.454	0.596	0.574	0.500	0.560	0.513	0.523																																																																																				
550	0.479	0.532	0.409	0.458	0.479	0.447	0.587	0.566	0.493	0.551	0.505	0.515																																																																																				
551	0.473	0.526	0.404	0.452	0.472	0.441	0.579	0.557	0.486	0.543	0.498	0.508																																																																																				
552	0.467	0.518	0.398	0.445	0.465	0.434	0.570	0.548	0.478	0.534	0.491	0.500																																																																																				
553	0.461	0.512	0.393	0.439	0.458	0.428	0.561	0.540	0.471	0.526	0.484	0.492																																																																																				
554	0.455	0.505	0.388	0.432	0.451	0.421	0.552	0.532	0.464	0.518	0.476	0.484																																																																																				
555	0.449	0.498	0.383	0.426	0.445	0.416	0.544	0.524	0.458	0.510	0.470	0.477																																																																																				
556	0.443	0.491	0.377	0.420	0.438	0.409	0.535	0.515	0.450	0.502	0.462	0.469																																																																																				
557	0.437	0.485	0.372	0.413	0.431	0.403	0.527	0.507	0.443	0.493	0.455	0.462																																																																																				
558	0.430	0.477	0.366	0.407	0.424	0.396	0.517	0.498	0.435	0.484	0.447	0.453																																																																																				
559	0.424	0.471	0.361	0.400	0.416	0.389	0.508	0.489	0.427	0.476	0.440	0.445																																																																																				
560	0.418	0.464	0.355	0.393	0.409	0.383	0.499	0.481	0.419	0.467	0.432	0.437																																																																																				
561	0.413	0.458	0.351	0.387	0.403	0.376	0.491	0.472	0.412	0.459	0.425	0.430																																																																																				
562	0.408	0.452	0.346	0.382	0.397	0.371	0.483	0.465	0.406	0.452	0.419	0.423																																																																																				
563	0.404	0.448	0.342	0.377	0.392	0.366	0.477	0.459	0.401	0.445	0.413	0.417																																																																																				
564	0.398	0.442	0.337	0.371	0.385	0.360	0.469	0.451	0.394	0.438	0.407	0.410																																																																																				
565	0.393	0.436	0.333	0.365	0.378	0.354	0.460	0.443	0.387	0.429	0.400	0.402																																																																																				
566	0.389	0.431	0.328	0.360	0.372	0.348	0.453	0.436	0.380	0.422	0.394	0.396																																																																																				
567	0.384	0.426	0.324	0.354	0.367	0.343	0.445	0.429	0.374	0.415	0.388	0.389																																																																																				
568	0.380	0.421	0.320	0.349	0.361	0.338	0.439	0.422	0.368	0.409	0.382	0.383																																																																																				
569	0.376	0.416	0.316	0.344	0.356	0.333	0.431	0.415	0.362	0.402	0.376	0.377																																																																																				
570	0.371	0.412	0.312	0.339	0.350	0.328	0.424	0.408	0.357	0.395	0.371	0.370																																																																																				
571	0.367	0.407	0.307	0.334	0.344	0.322	0.417	0.401	0.350	0.388	0.364	0.364																																																																																				
572	0.363	0.403	0.304	0.329	0.339	0.318	0.410	0.395	0.345	0.382	0.359	0.358																																																																																				
573	0.360	0.399	0.300	0.325	0.334	0.313	0.404	0.389	0.339	0.376	0.354	0.352																																																																																				
574	0.356	0.395	0.297	0.321	0.330	0.308	0.398	0.383	0.334	0.370	0.349	0.347																																																																																				
575	0.353	0.391	0.293	0.316	0.325	0.304	0.392	0.377	0.329	0.363	0.344	0.341																																																																																				
576	0.350	0.388	0.290	0.312	0.321	0.300	0.387	0.372	0.324	0.358	0.339	0.337																																																																																				
577	0.347	0.385	0.287	0.308	0.317	0.296	0.381	0.367	0.320	0.353	0.335	0.332																																																																																				
578	0.344	0.381	0.284	0.304	0.312	0.292	0.375	0.361	0.315	0.348	0.330	0.327																																																																																				
579	0.341	0.378	0.281	0.300	0.307	0.288	0.369	0.355	0.310	0.342	0.325	0.321																																																																																				
580	0.338	0.375	0.278	0.296	0.303	0.284	0.364	0.350	0.305	0.336	0.321	0.316																																																																																				
581	0.336	0.372	0.275	0.293	0.299	0.280	0.359	0.345	0.301	0.332	0.317	0.312																																																																																				
582	0.333	0.369	0.272	0.289	0.295	0.276	0.354	0.340	0.297	0.327	0.313	0.307																																																																																				
583	0.331	0.367	0.269	0.286	0.291	0.273	0.349	0.336	0.292	0.322	0.308	0.303																																																																																				
584	0.328	0.364	0.267	0.282	0.288	0.269	0.344	0.331	0.288	0.317	0.304	0.298																																																																																				
585	0.326	0.362	0.264	0.279	0.284	0.266	0.339	0.326	0.284	0.313	0.300	0.294																																																																																				
586	0.324	0.360	0.262	0.276	0.281	0.262	0.335	0.322	0.281	0.308	0.297	0.290																																																																																				
587	0.322	0.358	0.260	0.273	0.277	0.259	0.331	0.317	0.277	0.304	0.293	0.286																																																																																				
588	0.321	0.356	0.258	0.270	0.274	0.256	0.327	0.314	0.273	0.300	0.290	0.283																																																																																				
589	0.319	0.355	0.256	0.268	0.271	0.254	0.323	0.310	0.270	0.296	0.287	0.279																																																																																				
590	0.318	0.354	0.254	0.265	0.268	0.251	0.319	0.306	0.267	0.293	0.284	0.276																																																																																				
591	0.317	0.352	0.252	0.263	0.265	0.248	0.316	0.303	0.264	0.289	0.281	0.273																																																																																				
592	0.315	0.351	0.250	0.260	0.263	0.246	0.312	0.300	0.261	0.286	0.278	0.270																																																																																				
593	0.315	0.351	0.249	0.258	0.261	0.244	0.309	0.297	0.258	0.283	0.276	0.267																																																																																				
594	0.314	0.350	0.247	0.256	0.258	0.241	0.306	0.293	0.255	0.280	0.273	0.264																																																																																				
595	0.313	0.349	0.245	0.254	0.256	0.239	0.303	0.290	0.253	0.276	0.270	0.261																																																																																				
596	0.312	0.349	0.244	0.252	0.253	0.237	0.300	0.288	0.250	0.274	0.268	0.258																																																																																				
597	0.312	0.349	0.243	0.250	0.251	0.235	0.297	0.285	0.248	0.271	0.266	0.256																																																																																				
598	0.311	0.349	0.242	0.249	0.249	0.233	0.295	0.283	0.246	0.269	0.263	0.254																																																																																				
599	0.311	0.349	0.241	0.247	0.248	0.232	0.292	0.280	0.244	0.266	0.261	0.251																																																																																				
600	0.311	0.349	0.240	0.245	0.246	0.230	0.290	0.278	0.241	0.264	0.259	0.249																																																																																				
601	0.311	0.350	0.238	0.244	0.244	0.228	0.287	0.275	0.239	0.261	0.256	0.246																																																																																				
602	0.312	0.350	0.237	0.242	0.242	0.226	0.285	0.273	0.237	0.258	0.254	0.244																																																																																				
603	0.312	0.351	0.237	0.241	0.240	0.225	0.283	0.271	0.235	0.256	0.253	0.242																																																																																				
604	0.313	0.352	0.236	0.240	0.239	0.223	0.281	0.269	0.233	0.254	0.251	0.240																																																																																				
605	0.313	0.353	0.235	0.239	0.238	0.222	0.279	0.267	0.232	0.252	0.249	0.238																																																																																				
606	0.314	0.354	0.235	0.238	0.236	0.221	0.277	0.266	0.230	0.251	0.248	0.237																																																																																				
607	0.315	0.356	0.234	0.237	0.235	0.220	0.276	0.264	0.229	0.249	0.246	0.235																																																																																				
608	0.316	0.358	0.234	0.236	0.234	0.218	0.274	0.262	0.227	0.247	0.244	0.233																																																																																				
609	0.317	0.359	0.233	0.235	0.233	0.217	0.273	0.260	0.226	0.245	0.243	0.231																																																																																				
610	0.318	0.361	0.233	0.234	0.232	0.216	0.271	0.259	0.224	0.243	0.241	0.230																																																																																				
611	0.320	0.363	0.232	0.234	0.231	0.216	0.270	0.258	0.223	0.242	0.240	0.229																																																																																				
612	0.321	0.366	0.232	0.233	0.230	0.214	0.269	0.257	0.222	0.240	0.239	0.227																																																																																				
613	0.323	0.368	0.232	0.233	0.230	0.214	0.267	0.255	0.221	0.239	0.237	0.226																																																																																				
614	0.325	0.371	0.232	0.232	0.229	0.213	0.266	0.254	0.220	0.238	0.236	0.224																																																																																				
615	0.327	0.374	0.232	0.232	0.228	0.212	0.265	0.253	0.219	0.236	0.235	0.223																																																																																				
616	0.329	0.377	0.232	0.231	0.228	0.212	0.264	0.252	0.218	0.235	0.234	0.222																																																																																				
617	0.332	0.381	0.232	0.231	0.227	0.211	0.264	0.251	0.217	0.234	0.233	0.221																																																																																				
618	0.335	0.385	0.232	0.231	0.227	0.211	0.263	0.250	0.216	0.233	0.232	0.219																																																																																				
619	0.337	0.388	0.232	0.231	0.227	0.210	0.262	0.249	0.215	0.232	0.231	0.218																																																																																				
620	0.340	0.393	0.232	0.230	0.226	0.210	0.262	0.248	0.214	0.231	0.230	0.217																																																																																				
621	0.344	0.397	0.232	0.230	0.226	0.210	0.261	0.248	0.214	0.230	0.229	0.216																																																																																				
622	0.347	0.402	0.233	0.231	0.226	0.210	0.261	0.247	0.213	0.229	0.228	0.215																																																																																				
623	0.350	0.406	0.233	0.231	0.226	0.209	0.260	0.247	0.212	0.228	0.227	0.214																																																																																				
624	0.354	0.411	0.234	0.231	0.226	0.210	0.260	0.247	0.212	0.228	0.227	0.214																																																																																				
625	0.358	0.417	0.234	0.231	0.226	0.210	0.260	0.246	0.212	0.227	0.226	0.213																																																																																				
626	0.362	0.422	0.235	0.232	0.226	0.210	0.260	0.246	0.211	0.227	0.225	0.212																																																																																				
627	0.367	0.428	0.236	0.232	0.227	0.210	0.260	0.246	0.211	0.226	0.225	0.212																																																																																				
628	0.371	0.434	0.237	0.233	0.227	0.210	0.260	0.246	0.211	0.226	0.224	0.211																																																																																				
629	0.376	0.440	0.238	0.233	0.228	0.210	0.260	0.246	0.211	0.225	0.224	0.211																																																																																				
630	0.381	0.447	0.239	0.234	0.228	0.211	0.261	0.246	0.211	0.225	0.223	0.210																																																																																				
631	0.385	0.453	0.239	0.235	0.229	0.211	0.261	0.246	0.210	0.225	0.223	0.210																																																																																				
632	0.391	0.460	0.241	0.236	0.229	0.212	0.262	0.246	0.210	0.225	0.223	0.209																																																																																				
633	0.396	0.468	0.242	0.236	0.230	0.212	0.262	0.246	0.211	0.225	0.223	0.209																																																																																				
634	0.402	0.475	0.243	0.237	0.231	0.213	0.263	0.247	0.211	0.225	0.222	0.209																																																																																				
635	0.408	0.483	0.245	0.239	0.232	0.214	0.264	0.247	0.211	0.225	0.222	0.209																																																																																				
636	0.414	0.491	0.246	0.240	0.233	0.214	0.264	0.248	0.211	0.225	0.222	0.208																																																																																				
637	0.421	0.500	0.247	0.241	0.234	0.215	0.265	0.248	0.211	0.225	0.222	0.208																																																																																				
638	0.428	0.509	0.249	0.242	0.235	0.216	0.266	0.249	0.212	0.225	0.222	0.208																																																																																				
639	0.435	0.518	0.251	0.244	0.237	0.217	0.267	0.250	0.212	0.225	0.222	0.208																																																																																				
640	0.443	0.528	0.253	0.245	0.238	0.219	0.268	0.251	0.213	0.226	0.222	0.208																																																																																				
641	0.450	0.538	0.255	0.247	0.239	0.220	0.270	0.252	0.213	0.226	0.222	0.209																																																																																				
642	0.459	0.548	0.257	0.249	0.241	0.221	0.271	0.253	0.214	0.227	0.223	0.209																																																																																				
643	0.467	0.559	0.259	0.251	0.242	0.222	0.273	0.254	0.215	0.227	0.223	0.209																																																																																				
644	0.475	0.569	0.261	0.253	0.244	0.224	0.274	0.255	0.216	0.228	0.223	0.209																																																																																				
645	0.484	0.581	0.263	0.255	0.246	0.225	0.276	0.256	0.216	0.228	0.223	0.209																																																																																				
646	0.493	0.592	0.266	0.257	0.248	0.227	0.278	0.257	0.217	0.229	0.224	0.210																																																																																				
647	0.503	0.605	0.268	0.259	0.250	0.229	0.280	0.259	0.218	0.230	0.224	0.210																																																																																				
648	0.513	0.617	0.271	0.261	0.252	0.230	0.281	0.260	0.219	0.231	0.225	0.211																																																																																				
649	0.523	0.630	0.273	0.264	0.255	0.232	0.283	0.262	0.220	0.232	0.225	0.211																																																																																				
650	0.534	0.643	0.276	0.266	0.257	0.234	0.286	0.264	0.222	0.233	0.226	0.212																																																																																				
651	0.544	0.656	0.279	0.269	0.259	0.236	0.288	0.265	0.223	0.234	0.227	0.213																																																																																				
652	0.554	0.669	0.282	0.271	0.262	0.238	0.290	0.267	0.224	0.235	0.228	0.213																																																																																				
653	0.565	0.682	0.285	0.274	0.264	0.240	0.293	0.269	0.225	0.236	0.228	0.214																																																																																				
654	0.577	0.696	0.288	0.277	0.267	0.243	0.295	0.271	0.227	0.237	0.229	0.215																																																																																				
655	0.589	0.711	0.291	0.280	0.270	0.245	0.298	0.273	0.228	0.239	0.230	0.216																																																																																				
656	0.601	0.726	0.295	0.283	0.273	0.248	0.301	0.276	0.230	0.240	0.231	0.217																																																																																				
657	0.614	0.742	0.299	0.287	0.276	0.250	0.304	0.278	0.232	0.242	0.232	0.218																																																																																				
658	0.627	0.757	0.302	0.290	0.280	0.253	0.307	0.280	0.233	0.243	0.233	0.219																																																																																				
659	0.640	0.773	0.306	0.294	0.283	0.256	0.310	0.283	0.235	0.245	0.234	0.220																																																																																				
660	0.652	0.788	0.310	0.297	0.286	0.258	0.314	0.285	0.237	0.247	0.236	0.221																																																																																				
661	0.667	0.805	0.314	0.301	0.290	0.262	0.317	0.288	0.239	0.248	0.237	0.223																																																																																				
662	0.681	0.821	0.318	0.305	0.294	0.265	0.321	0.291	0.241	0.250	0.238	0.224																																																																																				
663	0.694	0.837	0.322	0.308	0.297	0.267	0.324	0.294	0.243	0.252	0.239	0.225																																																																																				
664	0.708	0.854	0.326	0.312	0.301	0.271	0.328	0.297	0.245	0.254	0.241	0.226																																																																																				
665	0.723	0.870	0.330	0.316	0.305	0.274	0.331	0.299	0.247	0.256	0.242	0.228																																																																																				
666	0.737	0.887	0.335	0.320	0.309	0.277	0.335	0.303	0.249	0.258	0.243	0.229																																																																																				
667	0.753	0.905	0.340	0.325	0.313	0.281	0.340	0.306	0.252	0.261	0.245	0.231																																																																																				
668	0.769	0.924	0.344	0.330	0.318	0.285	0.344	0.309	0.255	0.263	0.247	0.233																																																																																				
669	0.785	0.942	0.349	0.335	0.323	0.289	0.348	0.313	0.257	0.266	0.249	0.234																																																																																				
670	0.801	0.960	0.354	0.339	0.327	0.293	0.353	0.317	0.260	0.268	0.251	0.236																																																																																				
671	0.817	0.978	0.359	0.344	0.332	0.297	0.357	0.320	0.263	0.271	0.252	0.238																																																																																				
672	0.832	0.995	0.364	0.349	0.337	0.300	0.362	0.324	0.265	0.273	0.254	0.239																																																																																				
673	0.849	1.014	0.369	0.354	0.342	0.305	0.367	0.328	0.268	0.276	0.256	0.241																																																																																				
674	0.866	1.033	0.375	0.359	0.347	0.309	0.372	0.332	0.271	0.279	0.258	0.243																																																																																				
675	0.883	1.051	0.380	0.364	0.352	0.314	0.378	0.336	0.274	0.282	0.260	0.246																																																																																				
676	0.900	1.071	0.386	0.370	0.358	0.319	0.383	0.341	0.278	0.285	0.262	0.248																																																																																				
677	0.917	1.089	0.392	0.376	0.363	0.323	0.388	0.345	0.281	0.288	0.265	0.250																																																																																				
678	0.933	1.107	0.397	0.381	0.369	0.328	0.394	0.349	0.284	0.291	0.267	0.252																																																																																				
679	0.951	1.126	0.403	0.387	0.374	0.333	0.400	0.354	0.287	0.294	0.269	0.255																																																																																				
680	0.969	1.145	0.409	0.393	0.381	0.338	0.406	0.359	0.291	0.298	0.272	0.257																																																																																				
681	0.986	1.163	0.415	0.399	0.387	0.343	0.412	0.364	0.295	0.301	0.274	0.260																																																																																				
682	1.003	1.182	0.421	0.406	0.393	0.348	0.418	0.369	0.298	0.305	0.277	0.262																																																																																				
683	1.020	1.199	0.427	0.411	0.399	0.353	0.424	0.373	0.302	0.308	0.279	0.265																																																																																				
684	1.037	1.217	0.434	0.418	0.405	0.358	0.430	0.378	0.306	0.312	0.282	0.267																																																																																				
685	1.055	1.235	0.440	0.425	0.412	0.364	0.437	0.384	0.310	0.316	0.284	0.270																																																																																				
686	1.073	1.254	0.447	0.432	0.419	0.370	0.444	0.390	0.314	0.320	0.287	0.273																																																																																				
687	1.092	1.272	0.455	0.439	0.426	0.376	0.451	0.396	0.319	0.324	0.290	0.276																																																																																				
688	1.109	1.290	0.462	0.446	0.433	0.382	0.458	0.401	0.323	0.328	0.293	0.279																																																																																				
689	1.126	1.307	0.469	0.453	0.440	0.388	0.466	0.407	0.328	0.333	0.297	0.282																																																																																				
690	1.143	1.323	0.475	0.461	0.447	0.394	0.473	0.413	0.332	0.337	0.300	0.285																																																																																				
691	1.159	1.338	0.482	0.467	0.454	0.400	0.479	0.419	0.336	0.341	0.303	0.288																																																																																				
692	1.175	1.354	0.489	0.475	0.461	0.406	0.487	0.425	0.341	0.346	0.306	0.292																																																																																				
693	1.192	1.371	0.497	0.483	0.469	0.412	0.495	0.431	0.346	0.350	0.309	0.295																																																																																				
694	1.208	1.386	0.504	0.490	0.476	0.419	0.502	0.438	0.351	0.355	0.313	0.299																																																																																				
695	1.223	1.400	0.512	0.498	0.484	0.425	0.510	0.444	0.356	0.360	0.316	0.302																																																																																				
696	1.240	1.415	0.520	0.506	0.492	0.432	0.519	0.451	0.361	0.365	0.320	0.306																																																																																				
697	1.256	1.431	0.528	0.515	0.500	0.439	0.528	0.459	0.367	0.371	0.324	0.310																																																																																				
698	1.270	1.443	0.535	0.523	0.507	0.445	0.535	0.465	0.371	0.376	0.328	0.314																																																																																				
699	1.284	1.456	0.543	0.530	0.515	0.452	0.543	0.472	0.376	0.381	0.331	0.317																																																																																				
700	1.297	1.468	0.550	0.538	0.522	0.458	0.550	0.478	0.381	0.386	0.335	0.321																																																																																				
701	1.310	1.480	0.558	0.546	0.530	0.465	0.559	0.485	0.387	0.391	0.339	0.325																																																																																				
702	1.324	1.491	0.567	0.555	0.538	0.472	0.567	0.493	0.393	0.397	0.343	0.329																																																																																				
703	1.339	1.504	0.576	0.564	0.547	0.479	0.577	0.501	0.399	0.403	0.347	0.334																																																																																				
704	1.352	1.514	0.584	0.572	0.555	0.486	0.586	0.508	0.404	0.409	0.352	0.339																																																																																				
705	1.364	1.524	0.593	0.581	0.563	0.493	0.594	0.515	0.410	0.415	0.356	0.343																																																																																				
706	1.376	1.533	0.601	0.590	0.571	0.500	0.603	0.523	0.416	0.420	0.361	0.347																																																																																				
707	1.387	1.542	0.610	0.598	0.579	0.507	0.611	0.531	0.422	0.426	0.365	0.352																																																																																				
708	1.398	1.550	0.618	0.607	0.587	0.514	0.620	0.538	0.428	0.432	0.370	0.357																																																																																				
709	1.409	1.559	0.628	0.616	0.596	0.521	0.630	0.547	0.435	0.439	0.375	0.362																																																																																				
710	1.419	1.566	0.637	0.624	0.604	0.528	0.638	0.554	0.440	0.445	0.380	0.367																																																																																				
711	1.429	1.574	0.646	0.633	0.613	0.536	0.647	0.562	0.447	0.452	0.385	0.372																																																																																				
712	1.439	1.580	0.655	0.641	0.620	0.542	0.656	0.570	0.453	0.458	0.390	0.377																																																																																				
713	1.448	1.586	0.664	0.651	0.629	0.550	0.665	0.578	0.459	0.464	0.395	0.382																																																																																				
714	1.457	1.592	0.674	0.660	0.637	0.557	0.675	0.586	0.466	0.471	0.400	0.388																																																																																				
715	1.466	1.597	0.683	0.669	0.645	0.565	0.684	0.595	0.472	0.478	0.406	0.393																																																																																				
716	1.473	1.602	0.693	0.678	0.653	0.572	0.693	0.603	0.478	0.484	0.411	0.398																																																																																				
717	1.480	1.606	0.702	0.687	0.662	0.579	0.702	0.611	0.485	0.491	0.416	0.403																																																																																				
718	1.487	1.609	0.711	0.695	0.669	0.586	0.711	0.619	0.491	0.498	0.421	0.409																																																																																				
719	1.494	1.612	0.721	0.704	0.677	0.593	0.720	0.627	0.497	0.505	0.427	0.414																																																																																				
720	1.499	1.614	0.730	0.712	0.685	0.599	0.728	0.635	0.503	0.511	0.432	0.419																																																																																				
721	1.505	1.616	0.740	0.722	0.693	0.607	0.738	0.644	0.510	0.518	0.438	0.425																																																																																				
722	1.510	1.618	0.750	0.731	0.702	0.614	0.747	0.652	0.517	0.526	0.444	0.431																																																																																				
723	1.515	1.619	0.759	0.740	0.710	0.621	0.756	0.661	0.524	0.533	0.450	0.437																																																																																				
724	1.519	1.619	0.769	0.748	0.717	0.628	0.765	0.669	0.530	0.539	0.456	0.442																																																																																				
725	1.522	1.619	0.778	0.757	0.725	0.635	0.774	0.678	0.536	0.547	0.462	0.448																																																																																				
726	1.525	1.618	0.787	0.765	0.733	0.641	0.783	0.686	0.543	0.553	0.468	0.454																																																																																				
727	1.528	1.617	0.797	0.774	0.741	0.648	0.792	0.694	0.550	0.561	0.474	0.460																																																																																				
728	1.530	1.616	0.807	0.783	0.749	0.656	0.802	0.704	0.557	0.569	0.480	0.467																																																																																				
729	1.531	1.613	0.817	0.791	0.757	0.663	0.811	0.712	0.564	0.576	0.487	0.473																																																																																				
730	1.532	1.611	0.826	0.799	0.764	0.669	0.820	0.720	0.570	0.583	0.493	0.479																																																																																				
731	1.533	1.608	0.835	0.808	0.772	0.676	0.829	0.729	0.577	0.591	0.499	0.485																																																																																				
732	1.533	1.605	0.844	0.816	0.779	0.682	0.837	0.737	0.583	0.598	0.505	0.491																																																																																				
733	1.532	1.601	0.853	0.824	0.787	0.689	0.846	0.745	0.590	0.605	0.512	0.497																																																																																				
734	1.532	1.597	0.861	0.832	0.793	0.695	0.854	0.753	0.596	0.612	0.518	0.502																																																																																				
735	1.530	1.592	0.870	0.839	0.800	0.702	0.863	0.761	0.602	0.619	0.524	0.508																																																																																				
736	1.528	1.586	0.878	0.847	0.808	0.708	0.872	0.769	0.609	0.626	0.530	0.515																																																																																				
737	1.526	1.580	0.887	0.855	0.815	0.714	0.880	0.778	0.615	0.633	0.537	0.521																																																																																				
738	1.523	1.574	0.895	0.862	0.822	0.721	0.888	0.785	0.622	0.640	0.543	0.527																																																																																				
739	1.519	1.567	0.903	0.870	0.828	0.726	0.896	0.793	0.628	0.647	0.549	0.532																																																																																				
740	1.515	1.561	0.910	0.877	0.835	0.733	0.904	0.801	0.634	0.654	0.555	0.538																																																																																				
741	1.511	1.553	0.918	0.884	0.841	0.738	0.912	0.808	0.639	0.660	0.561	0.543																																																																																				
742	1.506	1.545	0.925	0.890	0.847	0.744	0.920	0.816	0.646	0.667	0.567	0.549																																																																																				
743	1.501	1.536	0.932	0.897	0.854	0.750	0.928	0.823	0.652	0.674	0.573	0.555																																																																																				
744	1.496	1.528	0.939	0.904	0.860	0.755	0.936	0.831	0.658	0.680	0.579	0.561																																																																																				
745	1.489	1.519	0.946	0.911	0.866	0.761	0.943	0.838	0.664	0.687	0.585	0.566																																																																																				
746	1.483	1.510	0.952	0.917	0.872	0.766	0.951	0.845	0.669	0.693	0.591	0.572																																																																																				
747	1.476	1.500	0.959	0.923	0.878	0.771	0.958	0.853	0.675	0.700	0.597	0.578																																																																																				
748	1.470	1.490	0.965	0.930	0.884	0.777	0.966	0.860	0.681	0.706	0.603	0.583																																																																																				
749	1.462	1.480	0.971	0.936	0.890	0.782	0.973	0.867	0.687	0.713	0.608	0.589																																																																																				
750	1.454	1.470	0.977	0.942	0.895	0.787	0.981	0.874	0.693	0.719	0.614	0.594																																																																																				
751	1.446	1.459	0.982	0.948	0.900	0.792	0.987	0.881	0.698	0.725	0.619	0.599																																																																																				
752	1.439	1.449	0.987	0.953	0.905	0.797	0.994	0.887	0.703	0.731	0.625	0.604																																																																																				
753	1.431	1.439	0.992	0.959	0.910	0.801	1.001	0.894	0.709	0.737	0.630	0.610																																																																																				
754	1.422	1.429	0.997	0.964	0.916	0.806	1.008	0.901	0.714	0.743	0.636	0.615																																																																																				
755	1.414	1.417	1.002	0.970	0.920	0.811	1.014	0.907	0.720	0.749	0.641	0.620																																																																																				
756	1.405	1.406	1.006	0.975	0.925	0.815	1.021	0.914	0.725	0.755	0.646	0.625																																																																																				
757	1.395	1.395	1.011	0.980	0.930	0.820	1.028	0.920	0.731	0.761	0.651	0.630																																																																																				
758	1.385	1.381	1.016	0.986	0.936	0.825	1.035	0.928	0.737	0.768	0.658	0.636																																																																																				
759	1.375	1.370	1.020	0.991	0.940	0.829	1.042	0.934	0.742	0.774	0.663	0.641																																																																																				
760	1.365	1.358	1.025	0.996	0.945	0.834	1.048	0.941	0.748	0.781	0.668	0.647																																																																																				
761	1.354	1.345	1.029	1.002	0.949	0.838	1.055	0.948	0.753	0.787	0.674	0.652																																																																																				
762	1.342	1.331	1.033	1.007	0.954	0.842	1.062	0.955	0.759	0.794	0.679	0.658																																																																																				
763	1.333	1.320	1.037	1.012	0.958	0.846	1.068	0.961	0.764	0.800	0.684	0.663																																																																																				
764	1.325	1.310	1.040	1.016	0.961	0.850	1.073	0.967	0.768	0.804	0.689	0.667																																																																																				
765	1.317	1.300	1.043	1.019	0.964	0.853	1.077	0.971	0.772	0.809	0.692	0.671																																																																																				
766	1.307	1.290	1.046	1.024	0.967	0.856	1.083	0.977	0.777	0.815	0.697	0.675																																																																																				
767	1.296	1.277	1.050	1.028	0.971	0.860	1.089	0.983	0.782	0.821	0.703	0.681																																																																																				
768	1.284	1.264	1.053	1.032	0.975	0.864	1.095	0.990	0.788	0.827	0.708	0.686																																																																																				
769	1.273	1.250	1.056	1.037	0.978	0.867	1.101	0.996	0.793	0.833	0.713	0.691																																																																																				
770	1.262	1.239	1.060	1.041	0.981	0.870	1.107	1.002	0.798	0.839	0.718	0.697																																																																																				
771	1.251	1.226	1.063	1.045	0.984	0.873	1.112	1.008	0.803	0.845	0.723	0.702																																																																																				
772	1.240	1.214	1.066	1.049	0.987	0.876	1.117	1.014	0.808	0.850	0.728	0.706																																																																																				
773	1.229	1.201	1.069	1.053	0.990	0.879	1.122	1.020	0.813	0.856	0.733	0.712																																																																																				
774	1.218	1.189	1.071	1.057	0.993	0.882	1.127	1.025	0.818	0.862	0.738	0.717																																																																																				
775	1.206	1.177	1.074	1.060	0.995	0.884	1.132	1.031	0.822	0.867	0.742	0.722																																																																																				
776	1.195	1.164	1.077	1.064	0.997	0.887	1.136	1.036	0.827	0.873	0.747	0.726																																																																																				
777	1.184	1.152	1.079	1.067	1.000	0.890	1.141	1.042	0.832	0.878	0.752	0.731																																																																																				
778	1.173	1.140	1.082	1.071	1.002	0.892	1.145	1.047	0.837	0.884	0.757	0.737																																																																																				
779	1.161	1.127	1.085	1.074	1.004	0.895	1.150	1.053	0.841	0.890	0.762	0.742																																																																																				
780	1.149	1.114	1.087	1.077	1.006	0.897	1.154	1.058	0.846	0.896	0.767	0.747																																																																																				
781	1.138	1.102	1.089	1.080	1.008	0.899	1.158	1.063	0.850	0.901	0.772	0.752																																																																																				
782	1.126	1.090	1.092	1.083	1.010	0.901	1.162	1.069	0.855	0.907	0.777	0.757																																																																																				
783	1.115	1.078	1.094	1.085	1.011	0.902	1.166	1.073	0.859	0.912	0.782	0.762																																																																																				
784	1.103	1.065	1.096	1.088	1.012	0.904	1.170	1.079	0.863	0.917	0.787	0.767																																																																																				
785	1.092	1.052	1.098	1.091	1.014	0.906	1.173	1.084	0.868	0.923	0.792	0.772																																																																																				
786	1.080	1.040	1.100	1.093	1.015	0.908	1.177	1.088	0.872	0.929	0.797	0.777																																																																																				
787	1.068	1.027	1.102	1.095	1.016	0.909	1.180	1.093	0.876	0.934	0.802	0.782																																																																																				
788	1.056	1.015	1.104	1.097	1.017	0.910	1.183	1.098	0.880	0.939	0.807	0.787																																																																																				
789	1.046	1.004	1.106	1.099	1.017	0.911	1.186	1.102	0.883	0.944	0.811	0.792																																																																																				
790	1.035	0.993	1.107	1.101	1.018	0.912	1.188	1.106	0.887	0.949	0.816	0.797																																																																																				
791	1.023	0.981	1.109	1.102	1.018	0.913	1.192	1.110	0.891	0.953	0.821	0.801																																																																																				
792	1.010	0.967	1.110	1.104	1.019	0.914	1.194	1.115	0.895	0.959	0.826	0.807																																																																																				
793	1.000	0.956	1.112	1.105	1.019	0.915	1.197	1.119	0.898	0.964	0.831	0.812																																																																																				
794	0.988	0.944	1.113	1.107	1.019	0.916	1.199	1.122	0.902	0.969	0.836	0.817																																																																																				
795	0.976	0.932	1.114	1.107	1.019	0.916	1.201	1.126	0.905	0.973	0.840	0.822																																																																																				
796	0.966	0.922	1.115	1.108	1.019	0.917	1.203	1.129	0.908	0.977	0.845	0.826																																																																																				
797	0.955	0.910	1.116	1.109	1.019	0.917	1.205	1.133	0.911	0.982	0.850	0.831																																																																																				
798	0.944	0.899	1.117	1.110	1.019	0.917	1.206	1.136	0.914	0.986	0.854	0.835																																																																																				
799	0.933	0.887	1.118	1.111	1.019	0.918	1.208	1.139	0.917	0.990	0.859	0.840																																																																																				
800	0.922	0.876	1.119	1.111	1.018	0.918	1.209	1.142	0.920	0.995	0.864	0.844																																																																																				
801	0.910	0.865	1.119	1.111	1.018	0.918	1.210	1.145	0.923	0.999	0.869	0.849																																																																																				
802	0.900	0.854	1.119	1.111	1.017	0.917	1.212	1.148	0.926	1.003	0.873	0.853																																																																																				
803	0.889	0.844	1.120	1.111	1.016	0.917	1.212	1.150	0.928	1.006	0.877	0.857																																																																																				
804	0.878	0.832	1.120	1.111	1.015	0.917	1.214	1.153	0.930	1.010	0.882	0.862																																																																																				
805	0.867	0.822	1.120	1.111	1.014	0.917	1.214	1.155	0.932	1.014	0.886	0.866																																																																																				
806	0.858	0.812	1.120	1.110	1.014	0.916	1.215	1.157	0.934	1.017	0.890	0.870																																																																																				
807	0.846	0.802	1.120	1.110	1.012	0.916	1.216	1.160	0.937	1.021	0.895	0.874																																																																																				
808	0.837	0.791	1.120	1.110	1.012	0.915	1.216	1.161	0.939	1.024	0.899	0.878																																																																																				
809	0.827	0.782	1.120	1.109	1.010	0.915	1.216	1.163	0.941	1.027	0.903	0.882																																																																																				
810	0.817	0.772	1.119	1.108	1.009	0.914	1.217	1.165	0.942	1.030	0.907	0.885																																																																																				
811	0.807	0.761	1.119	1.107	1.008	0.913	1.217	1.167	0.944	1.033	0.912	0.890																																																																																				
812	0.797	0.752	1.118	1.106	1.006	0.912	1.217	1.169	0.946	1.036	0.916	0.893																																																																																				
813	0.787	0.741	1.117	1.105	1.005	0.912	1.217	1.170	0.948	1.039	0.920	0.897																																																																																				
814	0.777	0.732	1.116	1.104	1.004	0.911	1.217	1.171	0.949	1.042	0.924	0.901																																																																																				
815	0.767	0.722	1.115	1.103	1.002	0.910	1.217	1.172	0.951	1.045	0.928	0.904																																																																																				
816	0.757	0.712	1.114	1.102	1.000	0.909	1.216	1.174	0.952	1.048	0.933	0.908																																																																																				
817	0.747	0.703	1.113	1.101	0.999	0.908	1.216	1.175	0.954	1.050	0.936	0.912																																																																																				
818	0.738	0.693	1.111	1.099	0.997	0.906	1.216	1.176	0.955	1.053	0.941	0.916																																																																																				
819	0.727	0.683	1.110	1.097	0.995	0.905	1.215	1.177	0.956	1.055	0.944	0.919																																																																																				
820	0.714	0.670	1.108	1.095	0.992	0.903	1.214	1.178	0.957	1.058	0.949	0.924																																																																																				
821	0.702	0.659	1.106	1.092	0.990	0.901	1.213	1.179	0.959	1.061	0.954	0.927																																																																																				
822	0.696	0.653	1.105	1.092	0.989	0.901	1.213	1.180	0.960	1.063	0.957	0.930																																																																																				
823	0.692	0.648	1.104	1.091	0.988	0.901	1.213	1.180	0.961	1.065	0.959	0.932																																																																																				
824	0.687	0.644	1.104	1.091	0.987	0.901	1.213	1.181	0.961	1.066	0.961	0.934																																																																																				
825	0.681	0.638	1.103	1.090	0.986	0.900	1.213	1.182	0.962	1.067	0.964	0.936																																																																																				
826	0.670	0.627	1.101	1.087	0.983	0.898	1.212	1.183	0.963	1.071	0.968	0.940																																																																																				
827	0.660	0.617	1.098	1.085	0.981	0.897	1.211	1.183	0.964	1.073	0.973	0.944																																																																																				
828	0.652	0.611	1.097	1.084	0.979	0.896	1.211	1.184	0.965	1.075	0.976	0.947																																																																																				
829	0.647	0.605	1.096	1.083	0.978	0.895	1.210	1.184	0.966	1.076	0.979	0.949																																																																																				
830	0.640	0.598	1.094	1.081	0.976	0.894	1.210	1.185	0.967	1.078	0.982	0.952																																																																																				
831	0.631	0.589	1.092	1.079	0.974	0.892	1.209	1.186	0.968	1.080	0.985	0.955																																																																																				
832	0.618	0.578	1.088	1.075	0.971	0.889	1.207	1.186	0.969	1.083	0.990	0.960																																																																																				
833	0.609	0.569	1.085	1.073	0.968	0.887	1.206	1.186	0.969	1.085	0.994	0.963																																																																																				
834	0.603	0.563	1.083	1.072	0.966	0.886	1.205	1.186	0.970	1.086	0.996	0.965																																																																																				
835	0.597	0.557	1.082	1.070	0.965	0.885	1.204	1.186	0.971	1.087	0.999	0.967																																																																																				
836	0.592	0.552	1.080	1.069	0.963	0.884	1.203	1.187	0.971	1.089	1.001	0.969																																																																																				
837	0.585	0.545	1.078	1.067	0.961	0.882	1.202	1.187	0.971	1.090	1.003	0.971																																																																																				
838	0.575	0.536	1.075	1.063	0.958	0.880	1.200	1.186	0.971	1.091	1.006	0.974																																																																																				
839	0.566	0.528	1.071	1.060	0.954	0.877	1.198	1.186	0.972	1.093	1.009	0.976																																																																																				
840	0.558	0.521	1.068	1.058	0.952	0.875	1.196	1.185	0.972	1.093	1.012	0.979																																																																																				
841	0.552	0.515	1.066	1.056	0.949	0.874	1.195	1.185	0.972	1.095	1.014	0.981																																																																																				
842	0.546	0.509	1.063	1.053	0.947	0.872	1.193	1.185	0.972	1.096	1.016	0.982																																																																																				
843	0.540	0.503	1.061	1.051	0.945	0.870	1.192	1.185	0.972	1.096	1.018	0.984																																																																																				
844	0.532	0.495	1.057	1.048	0.941	0.868	1.190	1.184	0.972	1.097	1.021	0.987																																																																																				
845	0.524	0.488	1.054	1.045	0.938	0.865	1.187	1.183	0.972	1.098	1.023	0.989																																																																																				
846	0.518	0.482	1.051	1.042	0.935	0.863	1.186	1.183	0.972	1.099	1.025	0.991																																																																																				
847	0.511	0.476	1.048	1.040	0.932	0.861	1.184	1.182	0.972	1.100	1.027	0.992																																																																																				
848	0.505	0.470	1.045	1.037	0.930	0.859	1.182	1.181	0.972	1.101	1.029	0.994																																																																																				
849	0.499	0.464	1.042	1.034	0.927	0.856	1.179	1.180	0.971	1.101	1.031	0.996																																																																																				
850	0.492	0.458	1.039	1.031	0.924	0.854	1.177	1.179	0.971	1.102	1.033	0.998																																																																																				
851	0.487	0.453	1.036	1.029	0.921	0.852	1.175	1.179	0.971	1.102	1.034	0.999																																																																																				
852	0.479	0.446	1.033	1.026	0.917	0.849	1.173	1.178	0.970	1.103	1.036	1.001																																																																																				
853	0.474	0.441	1.030	1.022	0.914	0.847	1.171	1.176	0.970	1.104	1.038	1.003																																																																																				
854	0.468	0.435	1.027	1.020	0.911	0.845	1.168	1.175	0.970	1.104	1.040	1.004																																																																																				
855	0.462	0.430	1.023	1.017	0.908	0.842	1.166	1.175	0.969	1.105	1.042	1.006																																																																																				
856	0.457	0.424	1.020	1.014	0.905	0.840	1.163	1.173	0.969	1.105	1.043	1.008																																																																																				
857	0.451	0.419	1.016	1.011	0.902	0.837	1.161	1.173	0.968	1.106	1.045	1.009																																																																																				
858	0.445	0.414	1.014	1.008	0.899	0.835	1.159	1.171	0.968	1.106	1.047	1.011																																																																																				
859	0.440	0.408	1.010	1.005	0.896	0.832	1.156	1.170	0.967	1.106	1.048	1.012																																																																																				
860	0.435	0.404	1.007	1.002	0.892	0.830	1.153	1.169	0.967	1.107	1.050	1.014																																																																																				
861	0.430	0.400	1.004	0.999	0.890	0.828	1.151	1.167	0.966	1.107	1.051	1.015																																																																																				
862	0.425	0.394	1.001	0.996	0.886	0.825	1.148	1.166	0.966	1.107	1.053	1.017																																																																																				
863	0.420	0.390	0.998	0.992	0.883	0.822	1.146	1.165	0.965	1.107	1.054	1.019																																																																																				
864	0.415	0.385	0.995	0.990	0.880	0.820	1.143	1.164	0.965	1.108	1.056	1.020																																																																																				
865	0.410	0.380	0.992	0.986	0.877	0.817	1.140	1.162	0.964	1.108	1.058	1.022																																																																																				
866	0.405	0.376	0.989	0.983	0.874	0.815	1.138	1.161	0.963	1.109	1.060	1.024																																																																																				
867	0.401	0.372	0.986	0.980	0.870	0.812	1.135	1.159	0.963	1.109	1.061	1.025																																																																																				
868	0.396	0.367	0.983	0.977	0.867	0.810	1.132	1.158	0.962	1.109	1.062	1.026																																																																																				
869	0.391	0.363	0.979	0.974	0.864	0.807	1.130	1.157	0.961	1.110	1.064	1.028																																																																																				
870	0.387	0.359	0.976	0.971	0.861	0.805	1.127	1.155	0.961	1.110	1.065	1.030																																																																																				
871	0.383	0.355	0.973	0.968	0.858	0.802	1.125	1.154	0.960	1.110	1.067	1.032																																																																																				
872	0.379	0.352	0.971	0.965	0.855	0.800	1.122	1.152	0.959	1.110	1.069	1.033																																																																																				
873	0.375	0.347	0.968	0.962	0.851	0.797	1.119	1.151	0.959	1.111	1.070	1.034																																																																																				
874	0.371	0.344	0.965	0.959	0.849	0.795	1.116	1.149	0.958	1.110	1.071	1.036																																																																																				
875	0.367	0.340	0.961	0.955	0.845	0.792	1.113	1.148	0.957	1.110	1.073	1.038																																																																																				
876	0.362	0.336	0.958	0.952	0.841	0.789	1.109	1.145	0.956	1.110	1.074	1.039																																																																																				
877	0.357	0.332	0.954	0.948	0.838	0.786	1.106	1.143	0.954	1.110	1.075	1.040																																																																																				
878	0.351	0.326	0.949	0.943	0.833	0.782	1.101	1.140	0.952	1.109	1.077	1.041																																																																																				
879	0.345	0.321	0.944	0.937	0.828	0.777	1.096	1.137	0.950	1.108	1.078	1.042																																																																																				
880	0.340	0.316	0.940	0.933	0.824	0.773	1.092	1.135	0.948	1.107	1.078	1.042																																																																																				
881	0.339	0.314	0.938	0.930	0.822	0.772	1.090	1.134	0.947	1.107	1.080	1.043																																																																																				
882	0.337	0.313	0.937	0.929	0.820	0.771	1.089	1.133	0.947	1.107	1.081	1.044																																																																																				
883	0.336	0.311	0.935	0.928	0.819	0.770	1.088	1.132	0.946	1.107	1.082	1.044																																																																																				
884	0.334	0.309	0.933	0.926	0.816	0.769	1.086	1.131	0.946	1.107	1.082	1.046																																																																																				
885	0.330	0.306	0.930	0.922	0.813	0.766	1.083	1.129	0.944	1.106	1.083	1.046																																																																																				
886	0.324	0.300	0.924	0.916	0.808	0.761	1.077	1.125	0.942	1.105	1.084	1.047																																																																																				
887	0.320	0.296	0.920	0.912	0.804	0.757	1.073	1.122	0.940	1.104	1.085	1.048																																																																																				
888	0.316	0.293	0.917	0.908	0.800	0.754	1.069	1.120	0.938	1.103	1.086	1.049																																																																																				
889	0.312	0.290	0.913	0.904	0.796	0.750	1.065	1.117	0.936	1.102	1.087	1.049																																																																																				
890	0.308	0.286	0.909	0.900	0.793	0.747	1.062	1.115	0.934	1.101	1.088	1.050																																																																																				
891	0.304	0.283	0.905	0.896	0.789	0.744	1.058	1.112	0.933	1.100	1.089	1.051																																																																																				
892	0.300	0.279	0.900	0.891	0.785	0.740	1.053	1.109	0.930	1.099	1.090	1.052																																																																																				
893	0.295	0.275	0.896	0.886	0.781	0.736	1.049	1.106	0.928	1.097	1.090	1.052																																																																																				
894	0.293	0.273	0.893	0.883	0.777	0.733	1.046	1.103	0.927	1.097	1.091	1.053																																																																																				
895	0.291	0.271	0.891	0.880	0.775	0.732	1.043	1.102	0.926	1.096	1.092	1.053																																																																																				
896	0.289	0.269	0.889	0.879	0.773	0.730	1.042	1.101	0.925	1.096	1.093	1.054																																																																																				
897	0.287	0.267	0.887	0.876	0.771	0.728	1.039	1.099	0.924	1.095	1.093	1.055																																																																																				
898	0.285	0.265	0.884	0.873	0.768	0.726	1.036	1.097	0.922	1.095	1.094	1.055																																																																																				
899	0.281	0.262	0.879	0.869	0.764	0.722	1.032	1.093	0.920	1.093	1.095	1.056																																																																																				
900	0.278	0.258	0.875	0.864	0.760	0.719	1.027	1.090	0.918	1.091	1.095	1.056																																																																																				
901	0.274	0.255	0.870	0.859	0.755	0.715	1.023	1.086	0.915	1.090	1.095	1.057																																																																																				
902	0.270	0.252	0.866	0.854	0.751	0.710	1.018	1.083	0.912	1.088	1.095	1.056																																																																																				
903	0.267	0.249	0.862	0.850	0.748	0.708	1.014	1.080	0.911	1.087	1.096	1.057																																																																																				
904	0.265	0.247	0.860	0.848	0.745	0.706	1.012	1.078	0.909	1.086	1.097	1.057																																																																																				
905	0.264	0.246	0.859	0.847	0.744	0.705	1.011	1.077	0.909	1.086	1.097	1.058																																																																																				
906	0.264	0.245	0.857	0.845	0.742	0.704	1.009	1.076	0.908	1.085	1.098	1.058																																																																																				
907	0.262	0.244	0.854	0.842	0.739	0.702	1.006	1.074	0.907	1.085	1.099	1.059																																																																																				
908	0.258	0.241	0.849	0.837	0.735	0.698	1.002	1.070	0.904	1.083	1.099	1.059																																																																																				
909	0.255	0.238	0.845	0.832	0.731	0.694	0.997	1.067	0.902	1.081	1.099	1.059																																																																																				
910	0.252	0.236	0.841	0.828	0.728	0.691	0.993	1.064	0.900	1.079	1.099	1.059																																																																																				
911	0.250	0.234	0.837	0.825	0.725	0.688	0.990	1.061	0.898	1.077	1.099	1.059																																																																																				
912	0.247	0.231	0.833	0.820	0.720	0.684	0.985	1.057	0.895	1.076	1.099	1.059																																																																																				
913	0.244	0.229	0.828	0.815	0.716	0.680	0.981	1.054	0.892	1.074	1.099	1.060																																																																																				
914	0.241	0.226	0.823	0.811	0.712	0.677	0.976	1.050	0.890	1.072	1.099	1.059																																																																																				
915	0.239	0.225	0.821	0.808	0.710	0.675	0.974	1.048	0.889	1.071	1.100	1.059																																																																																				
916	0.239	0.225	0.820	0.807	0.709	0.674	0.973	1.047	0.888	1.071	1.101	1.060																																																																																				
917	0.239	0.224	0.819	0.806	0.708	0.674	0.972	1.046	0.888	1.071	1.101	1.060																																																																																				
918	0.239	0.224	0.818	0.805	0.706	0.673	0.970	1.045	0.887	1.070	1.102	1.061																																																																																				
919	0.238	0.222	0.815	0.802	0.704	0.671	0.968	1.043	0.886	1.069	1.102	1.061																																																																																				
920	0.236	0.221	0.811	0.798	0.701	0.668	0.964	1.041	0.884	1.068	1.102	1.061																																																																																				
921	0.234	0.219	0.807	0.794	0.697	0.665	0.960	1.038	0.881	1.066	1.102	1.062																																																																																				
922	0.232	0.218	0.804	0.791	0.694	0.662	0.957	1.035	0.880	1.065	1.103	1.062																																																																																				
923	0.231	0.217	0.801	0.788	0.692	0.660	0.955	1.032	0.878	1.064	1.103	1.062																																																																																				
924	0.230	0.217	0.798	0.785	0.689	0.658	0.952	1.031	0.877	1.063	1.104	1.063																																																																																				
925	0.229	0.216	0.795	0.782	0.687	0.656	0.949	1.029	0.876	1.063	1.104	1.063																																																																																				
926	0.228	0.215	0.792	0.780	0.684	0.654	0.947	1.027	0.875	1.062	1.105	1.064																																																																																				
927	0.227	0.215	0.790	0.777	0.682	0.652	0.945	1.025	0.873	1.061	1.105	1.065																																																																																				
928	0.227	0.215	0.787	0.774	0.680	0.650	0.942	1.023	0.873	1.061	1.107	1.066																																																																																				
929	0.226	0.215	0.785	0.772	0.678	0.648	0.940	1.022	0.871	1.060	1.107	1.066																																																																																				
930	0.226	0.215	0.783	0.770	0.676	0.647	0.938	1.020	0.871	1.060	1.108	1.067																																																																																				
931	0.225	0.215	0.780	0.768	0.674	0.645	0.936	1.019	0.870	1.060	1.109	1.068																																																																																				
932	0.226	0.215	0.778	0.766	0.673	0.644	0.935	1.018	0.869	1.060	1.110	1.069																																																																																				
933	0.225	0.215	0.776	0.763	0.671	0.642	0.933	1.016	0.868	1.059	1.111	1.071																																																																																				
934	0.225	0.216	0.774	0.761	0.670	0.640	0.931	1.015	0.868	1.059	1.112	1.072																																																																																				
935	0.225	0.216	0.772	0.759	0.668	0.639	0.929	1.014	0.867	1.059	1.113	1.073																																																																																				
936	0.226	0.217	0.770	0.758	0.666	0.638	0.928	1.014	0.867	1.059	1.114	1.074																																																																																				
937	0.226	0.217	0.769	0.756	0.665	0.637	0.927	1.013	0.866	1.060	1.115	1.075																																																																																				
938	0.227	0.218	0.768	0.755	0.664	0.636	0.926	1.012	0.866	1.060	1.117	1.077																																																																																				
939	0.228	0.220	0.767	0.754	0.664	0.636	0.926	1.012	0.866	1.060	1.118	1.078																																																																																				
940	0.228	0.221	0.766	0.753	0.663	0.635	0.925	1.012	0.866	1.061	1.119	1.080																																																																																				
941	0.229	0.222	0.764	0.752	0.662	0.634	0.924	1.011	0.866	1.062	1.121	1.081																																																																																				
942	0.230	0.223	0.763	0.751	0.661	0.634	0.924	1.011	0.867	1.063	1.123	1.083																																																																																				
943	0.231	0.225	0.762	0.750	0.661	0.633	0.923	1.011	0.867	1.063	1.124	1.085																																																																																				
944	0.233	0.227	0.761	0.750	0.661	0.633	0.923	1.012	0.867	1.065	1.126	1.087																																																																																				
945	0.234	0.229	0.761	0.749	0.661	0.633	0.923	1.012	0.868	1.066	1.128	1.090																																																																																				
946	0.236	0.232	0.761	0.749	0.661	0.633	0.923	1.013	0.869	1.068	1.131	1.092																																																																																				
947	0.239	0.234	0.761	0.750	0.661	0.634	0.925	1.014	0.871	1.070	1.134	1.096																																																																																				
948	0.242	0.238	0.761	0.750	0.662	0.635	0.926	1.016	0.872	1.073	1.137	1.099																																																																																				
949	0.245	0.241	0.762	0.751	0.663	0.636	0.927	1.018	0.874	1.075	1.140	1.103																																																																																				
950	0.248	0.245	0.763	0.752	0.665	0.638	0.930	1.021	0.877	1.079	1.144	1.107																																																																																				
951	0.251	0.249	0.765	0.754	0.666	0.639	0.932	1.023	0.879	1.081	1.148	1.110																																																																																				
952	0.255	0.253	0.766	0.755	0.668	0.640	0.934	1.026	0.881	1.085	1.151	1.114																																																																																				
953	0.259	0.257	0.768	0.757	0.670	0.643	0.937	1.028	0.884	1.088	1.155	1.118																																																																																				
954	0.263	0.262	0.770	0.759	0.672	0.644	0.940	1.032	0.887	1.092	1.159	1.123																																																																																				
955	0.266	0.266	0.771	0.761	0.674	0.646	0.942	1.034	0.890	1.096	1.163	1.127																																																																																				
956	0.270	0.270	0.772	0.762	0.675	0.647	0.944	1.037	0.892	1.099	1.167	1.131																																																																																				
957	0.273	0.274	0.773	0.763	0.677	0.648	0.946	1.039	0.894	1.101	1.170	1.135																																																																																				
958	0.275	0.277	0.773	0.763	0.677	0.649	0.947	1.040	0.895	1.104	1.173	1.138																																																																																				
959	0.277	0.279	0.773	0.763	0.678	0.649	0.947	1.040	0.896	1.104	1.174	1.139																																																																																				
960	0.279	0.281	0.772	0.762	0.677	0.649	0.947	1.040	0.896	1.105	1.175	1.141																																																																																				
961	0.279	0.282	0.770	0.761	0.676	0.648	0.946	1.040	0.896	1.105	1.176	1.142																																																																																				
962	0.280	0.283	0.769	0.759	0.675	0.647	0.944	1.038	0.895	1.105	1.176	1.142																																																																																				
963	0.280	0.284	0.767	0.757	0.673	0.645	0.943	1.037	0.894	1.104	1.176	1.142																																																																																				
964	0.280	0.284	0.764	0.755	0.672	0.644	0.941	1.035	0.893	1.103	1.175	1.142																																																																																				
965	0.280	0.284	0.762	0.752	0.669	0.642	0.938	1.032	0.891	1.101	1.174	1.141																																																																																				
966	0.280	0.284	0.759	0.750	0.667	0.640	0.935	1.030	0.889	1.099	1.172	1.140																																																																																				
967	0.279	0.283	0.756	0.747	0.665	0.638	0.933	1.028	0.887	1.098	1.171	1.140																																																																																				
968	0.279	0.283	0.754	0.745	0.663	0.636	0.930	1.025	0.885	1.096	1.170	1.138																																																																																				
969	0.278	0.283	0.751	0.743	0.660	0.634	0.927	1.023	0.884	1.094	1.169	1.137																																																																																				
970	0.278	0.282	0.749	0.740	0.659	0.632	0.925	1.020	0.882	1.093	1.167	1.136																																																																																				
971	0.278	0.282	0.746	0.737	0.656	0.630	0.922	1.018	0.880	1.090	1.165	1.135																																																																																				
972	0.277	0.282	0.743	0.735	0.654	0.628	0.919	1.014	0.877	1.088	1.164	1.134																																																																																				
973	0.276	0.281	0.739	0.731	0.651	0.625	0.915	1.012	0.875	1.086	1.161	1.132																																																																																				
974	0.275	0.280	0.736	0.728	0.648	0.623	0.911	1.008	0.872	1.083	1.159	1.130																																																																																				
975	0.274	0.279	0.731	0.724	0.644	0.619	0.907	1.003	0.869	1.079	1.156	1.128																																																																																				
976	0.272	0.277	0.726	0.718	0.640	0.615	0.902	0.998	0.865	1.075	1.151	1.125																																																																																				
977	0.270	0.276	0.722	0.715	0.637	0.612	0.897	0.994	0.862	1.071	1.148	1.122																																																																																				
978	0.269	0.275	0.720	0.712	0.635	0.610	0.895	0.992	0.860	1.069	1.147	1.120																																																																																				
979	0.269	0.274	0.718	0.710	0.633	0.609	0.893	0.990	0.858	1.068	1.146	1.119																																																																																				
980	0.269	0.274	0.717	0.710	0.632	0.608	0.892	0.989	0.857	1.067	1.145	1.118																																																																																				
981	0.270	0.274	0.716	0.709	0.631	0.607	0.890	0.987	0.856	1.066	1.144	1.118																																																																																				
982	0.270	0.273	0.713	0.706	0.628	0.606	0.888	0.984	0.854	1.064	1.142	1.116																																																																																				
983	0.268	0.272	0.708	0.702	0.625	0.602	0.883	0.979	0.850	1.060	1.138	1.113																																																																																				
984	0.264	0.268	0.701	0.695	0.619	0.596	0.875	0.972	0.844	1.053	1.131	1.107																																																																																				
985	0.261	0.266	0.696	0.689	0.614	0.591	0.869	0.966	0.839	1.048	1.127	1.103																																																																																				
986	0.258	0.263	0.690	0.684	0.610	0.587	0.863	0.961	0.835	1.042	1.122	1.099																																																																																				
987	0.255	0.261	0.685	0.679	0.605	0.582	0.857	0.955	0.830	1.037	1.117	1.094																																																																																				
988	0.252	0.258	0.679	0.673	0.600	0.578	0.851	0.947	0.825	1.031	1.111	1.089																																																																																				
989	0.250	0.255	0.673	0.667	0.595	0.573	0.844	0.942	0.820	1.026	1.106	1.085																																																																																				
990	0.247	0.253	0.668	0.663	0.591	0.569	0.839	0.937	0.816	1.021	1.101	1.081																																																																																				
991	0.245	0.251	0.665	0.659	0.588	0.567	0.836	0.933	0.813	1.018	1.099	1.078																																																																																				
992	0.245	0.251	0.664	0.658	0.586	0.565	0.834	0.931	0.811	1.017	1.097	1.076																																																																																				
993	0.245	0.250	0.662	0.657	0.585	0.565	0.833	0.930	0.810	1.015	1.096	1.075																																																																																				
994	0.246	0.250	0.660	0.655	0.583	0.563	0.830	0.928	0.809	1.014	1.094	1.074																																																																																				
995	0.245	0.248	0.658	0.653	0.581	0.561	0.827	0.924	0.806	1.011	1.091	1.071																																																																																				
996	0.242	0.246	0.652	0.647	0.576	0.557	0.822	0.918	0.801	1.005	1.086	1.067																																																																																				
997	0.238	0.242	0.645	0.641	0.571	0.551	0.814	0.911	0.795	0.998	1.079	1.060																																																																																				
998	0.234	0.239	0.639	0.635	0.565	0.546	0.807	0.904	0.790	0.992	1.073	1.055																																																																																				
999	0.232	0.236	0.634	0.629	0.561	0.541	0.801	0.898	0.785	0.986	1.067	1.050																																																																																				

结果
	1	2	3	4	5	6	7	8	9	10	11	12
A	1.533	1.619	1.120	1.111	1.019	0.918	1.217	1.187	0.972	1.111	1.176	1.142	Mean Max OD [Spectrum]
B	?????	?????	?????	?????	?????	?????	?????	?????	?????	?????	?????	?????	Mean Max OD [Spectrum]
C	?????	?????	?????	?????	?????	?????	?????	?????	?????	?????	?????	?????	Mean Max OD [Spectrum]
D	?????	?????	?????	?????	?????	?????	?????	?????	?????	?????	?????	?????	Mean Max OD [Spectrum]
E	?????	?????	?????	?????	?????	?????	?????	?????	?????	?????	?????	?????	Mean Max OD [Spectrum]
F	?????	?????	?????	?????	?????	?????	?????	?????	?????	?????	?????	?????	Mean Max OD [Spectrum]
G	?????	?????	?????	?????	?????	?????	?????	?????	?????	?????	?????	?????	Mean Max OD [Spectrum]
H	?????	?????	?????	?????	?????	?????	?????	?????	?????	?????	?????	?????	Mean Max OD [Spectrum]

